time,f1,b1,f2,b2,f3,b3,f1p,f2p,f3p,f0,intensity,harmonicity
0.026000,595.4,66.9,1521.0,137.4,2423.0,90.0,611.4,1517.1,2439.4,0,62,2.4
0.028000,604.3,77.1,1515.6,118.7,2427.8,94.3,610.5,1517.1,2439.5,0,62.1,2
0.030000,610.2,87.3,1519.9,108.7,2430.9,91.4,609,1517,2439.6,0,62,1.6
0.032000,612.1,85.9,1523.8,98.1,2431.3,79.0,607.1,1516.9,2439.7,0,61.9,1.2
0.034000,613.1,77.0,1525.0,87.0,2431.4,66.0,604.7,1516.6,2439.9,0,61.7,0.9
0.036000,615.9,70.4,1525.8,80.2,2433.9,54.4,602.1,1516.2,2440,0,61.3,0.6
0.038000,619.7,72.5,1526.2,81.8,2438.2,47.2,599.4,1515.6,2440.1,0,60.7,0.4
0.040000,620.3,84.0,1523.0,87.1,2441.9,44.2,596.8,1514.7,2440.2,0,60.1,0.2
0.042000,611.4,98.8,1513.4,85.5,2443.8,43.7,594.3,1513.5,2440.2,0,59.4,0
0.044000,594.5,109.3,1501.0,75.8,2444.6,44.0,592.3,1511.9,2440.1,0,58.7,-0.3
0.046000,577.2,115.5,1491.1,65.8,2445.8,45.3,590.8,1509.9,2439.9,0,58.1,-0.5
0.048000,568.6,123.4,1487.7,64.5,2447.9,51.1,590,1507.4,2439.6,0,57.4,-0.9
0.050000,569.0,138.7,1492.8,80.4,2453.3,68.1,590,1504.5,2439.2,0,56.7,-1.2
0.052000,574.0,150.5,1503.4,121.3,2465.0,89.4,590.9,1501.1,2438.7,0,55.9,-1.6
0.054000,579.7,144.0,1499.3,171.7,2475.5,93.1,592.9,1497.2,2438.2,0,55.3,-1.7
0.056000,584.6,128.7,1466.3,189.5,2476.6,85.9,595.9,1492.9,2437.5,0,54.5,-1.6
0.058000,589.6,125.5,1447.3,172.2,2468.0,86.2,600,1488.2,2436.9,0,53.9,-1.2
0.060000,595.7,142.2,1460.2,159.9,2450.1,102.8,605.2,1483.1,2436.3,0,53.8,-0.6
0.062000,604.4,151.8,1482.1,154.4,2427.6,127.7,611.4,1477.8,2435.8,0,53.8,-0.1
0.064000,617.7,132.4,1496.8,145.9,2408.9,144.7,618.5,1472.4,2435.3,0,53.7,0.3
0.066000,632.7,100.9,1501.8,132.1,2399.3,147.2,626.5,1466.9,2435.1,0,53.5,0.2
0.068000,645.4,75.3,1499.7,116.7,2399.9,136.2,635.2,1461.5,2435,0,53.2,-0.3
0.070000,656.0,58.8,1492.6,103.4,2408.6,115.5,644.4,1456.2,2435.3,0,52.4,-1
0.072000,664.7,54.1,1479.4,99.4,2422.3,91.9,654,1451.3,2435.8,0,51.4,-1.7
0.074000,671.9,66.8,1459.9,114.1,2433.9,74.7,663.8,1446.7,2436.7,0,50.5,-2.2
0.076000,680.2,97.8,1438.7,150.6,2436.8,71.6,673.5,1442.7,2438,0,49.7,-2.1
0.078000,691.0,125.4,1419.0,186.1,2431.3,85.6,683.1,1439.3,2439.7,0,49.3,-1.5
0.080000,703.1,144.2,1405.3,205.1,2423.5,117.8,692.3,1436.7,2441.9,0,49.4,-0.7
0.082000,713.5,161.9,1406.2,217.5,2422.0,172.2,700.9,1434.8,2444.4,0,49.9,0.1
0.084000,720.1,181.9,1417.6,228.9,2435.0,237.0,708.8,1433.7,2447.4,0,50.4,0.8
0.086000,722.6,203.7,1432.8,224.7,2461.9,253.6,715.9,1433.6,2450.8,0,50.8,1.1
0.088000,720.3,218.2,1443.1,196.4,2479.7,197.3,722,1434.2,2454.6,0,51.2,1
0.090000,718.5,211.8,1447.1,163.7,2484.4,133.4,727.1,1435.8,2458.6,0,51.6,0.7
0.092000,723.2,183.0,1445.7,148.0,2484.9,98.5,731.1,1438.1,2462.9,0,51.8,0.4
0.094000,728.9,154.5,1440.9,150.0,2484.3,86.8,734.1,1441.1,2467.4,0,52,0.3
0.096000,730.5,135.5,1437.0,159.7,2482.2,87.7,736,1444.8,2472.1,0,51.9,0.5
0.098000,728.1,125.2,1438.6,168.8,2477.7,96.1,736.9,1449,2476.7,0,51.8,1
0.100000,725.3,122.5,1446.4,177.2,2471.8,107.5,736.8,1453.7,2481.3,0,51.4,1.6
0.102000,728.0,133.0,1457.7,190.8,2470.8,114.7,736,1458.6,2485.9,0,50.9,2.3
0.104000,737.6,158.9,1468.6,212.7,2479.8,115.0,734.4,1463.7,2490.2,0,50.3,2.7
0.106000,744.9,187.9,1477.3,226.5,2496.3,104.9,732.3,1468.8,2494.3,0,49.8,2.7
0.108000,734.9,192.8,1479.9,210.9,2510.7,88.5,729.8,1473.7,2498.2,0,49.5,2.2
0.110000,716.4,169.2,1477.3,179.0,2518.8,76.0,727,1478.4,2501.7,0,49.2,1.5
0.112000,707.7,142.3,1472.9,158.7,2521.4,70.9,724.1,1482.7,2505,0,49.1,0.8
0.114000,708.4,122.2,1470.0,152.0,2519.4,72.8,721.3,1486.6,2507.9,0,49.1,0.4
0.116000,711.9,106.4,1475.2,147.5,2512.4,83.7,718.6,1489.8,2510.5,0,49.2,1.4
0.118000,714.4,98.5,1488.4,146.9,2503.6,110.1,716.3,1492.5,2512.9,0,49.1,7.6
0.120000,715.0,101.4,1505.3,163.5,2502.6,164.7,714.3,1494.5,2515.2,0,48.9,14.8
0.122000,715.3,115.0,1522.8,208.7,2520.1,233.7,712.9,1495.8,2517.3,0,48.6,18.1
0.124000,716.3,127.3,1532.4,278.5,2536.6,258.7,712,1496.4,2519.5,0,48.2,12.1
0.126000,713.9,126.0,1515.3,321.2,2528.1,235.5,711.7,1496.4,2521.7,0,47.8,-8.8
0.128000,709.4,117.0,1494.8,257.2,2509.3,208.2,712,1495.7,2524.2,0,47.2,-48.3
0.130000,709.4,117.2,1492.2,173.3,2489.0,200.8,712.9,1494.6,2527,0,46.7,-97.7
0.132000,715.0,133.6,1490.8,128.4,2474.4,214.5,714.3,1493,2530.3,0,46.1,-147.2
0.134000,726.5,158.9,1485.6,110.5,2481.6,244.0,716.2,1491.2,2534.2,0,45.6,-186.9
0.136000,745.2,180.8,1478.8,105.0,2524.0,274.8,718.5,1489.1,2538.8,0,45.3,-208.3
0.138000,759.5,178.4,1474.3,102.5,2574.0,272.5,721.1,1486.9,2544.2,0,45.2,-215
0.140000,752.1,148.2,1472.5,97.3,2590.8,246.9,724,1484.7,2550.4,0,45.3,-212.8
0.142000,735.1,116.2,1471.7,90.3,2581.3,210.1,726.9,1482.7,2557.7,0,45.6,-206.4
0.144000,724.2,96.6,1470.1,84.7,2573.8,165.9,729.9,1480.9,2565.9,0,45.8,-200.9
0.146000,721.0,89.5,1468.5,84.3,2577.4,129.8,732.9,1479.5,2575.1,0,45.9,-200
0.148000,725.1,95.1,1470.0,89.2,2589.3,110.9,735.6,1478.5,2585.3,0,45.7,-200
0.150000,734.3,111.9,1476.1,94.9,2607.1,101.2,738.1,1477.9,2596.5,0,45.4,-200
0.152000,738.9,129.6,1483.6,99.7,2625.5,95.4,740.3,1477.9,2608.5,0,45,-200
0.154000,729.6,126.3,1488.4,108.8,2639.0,96.4,742.1,1478.4,2621.2,0,44.8,-200
0.156000,718.4,97.0,1491.0,134.7,2647.7,110.9,743.5,1479.4,2634.5,0,44.7,-200
0.158000,717.9,70.2,1491.7,185.5,2654.1,143.5,744.6,1481,2648.3,0,44.7,-200
0.160000,722.2,53.2,1489.9,246.0,2661.7,198.9,745.2,1482.9,2662.3,0,44.6,-200
0.162000,727.2,42.3,1487.7,263.4,2674.1,261.2,745.5,1485.3,2676.4,0,44.4,-200
0.164000,733.2,35.5,1484.9,214.1,2692.3,278.4,745.4,1488,2690.3,0,44.1,-200
0.166000,741.6,32.9,1482.9,138.6,2704.9,249.8,745,1490.8,2703.8,0,43.6,-200
0.168000,750.8,35.3,1491.3,87.8,2706.1,239.4,744.4,1493.8,2716.6,0,42.9,-200
0.170000,758.6,42.3,1506.0,60.6,2701.3,269.2,743.7,1496.7,2728.6,0,42.1,-200
0.172000,764.0,54.5,1518.6,47.4,2695.6,339.7,742.8,1499.5,2739.5,0,41.6,-200
0.174000,766.8,76.5,1525.0,42.8,2698.3,454.8,742,1502.1,2749.1,0,41.2,-200
0.176000,763.9,115.2,1523.6,45.0,2729.4,623.5,741.2,1504.4,2757.2,0,41.1,-200
0.178000,752.9,158.8,1514.4,49.9,2794.2,738.2,740.5,1506.3,2763.7,0,41.1,-200
0.180000,738.7,194.0,1498.8,53.0,2824.1,654.6,739.9,1507.7,2768.4,0,41.2,-200
0.182000,728.4,222.2,1482.8,52.2,2795.2,522.6,739.6,1508.5,2771.3,0,41,-200
0.184000,725.1,244.6,1472.2,50.4,2770.0,424.1,739.5,1508.8,2772.2,0,40.8,-200
