time,f1,b1,f2,b2,f3,b3,f1p,f2p,f3p,f0,intensity,harmonicity
0.026000,699.1,72.5,1379.5,73.3,2421.0,249.0,724.5,1366.7,2437.9,0,53.6,3
0.028000,685.4,77.7,1356.1,93.2,2401.9,303.8,723.4,1365.5,2437.7,0,53.2,3.2
0.030000,684.8,74.6,1344.0,107.8,2390.2,292.4,721.8,1363.6,2437.4,0,52.8,3.3
0.032000,691.3,69.3,1346.0,109.4,2402.6,279.2,719.6,1361.2,2437,0,52.6,3.3
0.034000,702.3,67.7,1353.8,106.8,2430.4,266.4,717.1,1358.4,2436.6,0,52.3,3.2
0.036000,720.0,73.4,1361.3,114.4,2455.2,226.6,714.3,1355.5,2436.1,0,51.8,3.2
0.038000,740.8,82.9,1363.4,142.9,2467.0,192.9,711.5,1352.6,2435.8,0,51.2,3.1
0.040000,756.9,90.0,1356.9,183.3,2472.2,195.9,708.9,1350,2435.6,0,50.7,2.9
0.042000,762.6,95.0,1350.1,190.6,2470.7,230.8,706.7,1348.1,2435.7,0,50.3,2.7
0.044000,756.4,103.9,1354.7,151.3,2467.0,270.5,705.1,1346.9,2436,0,50.1,2.5
0.046000,739.1,116.3,1362.8,107.8,2468.6,294.3,704.3,1346.8,2436.6,0,50.2,2.3
0.048000,722.9,117.3,1367.1,81.1,2468.6,283.5,704.5,1347.9,2437.5,0,50.4,2.2
0.050000,714.5,109.9,1367.5,66.8,2461.3,247.7,705.8,1350.4,2438.9,0,50.6,2.2
0.052000,707.9,110.9,1365.3,62.4,2452.8,203.3,708.4,1354.3,2440.6,0,50.8,2.1
0.054000,697.4,128.7,1363.5,66.3,2443.7,158.6,712.4,1359.7,2442.7,0,50.9,1.9
0.056000,687.4,150.6,1363.4,75.1,2429.3,131.9,717.8,1366.5,2445.1,0,51,1.7
0.058000,685.2,152.6,1362.4,88.0,2416.2,136.4,724.6,1374.6,2447.8,0,50.9,1.3
0.060000,694.6,140.8,1360.5,108.6,2411.2,159.5,732.7,1383.9,2450.7,0,50.8,0.8
0.062000,717.4,127.5,1361.1,134.2,2416.0,183.8,742.1,1394.1,2453.8,0,50.6,0.3
0.064000,744.1,118.7,1367.9,157.2,2428.0,201.0,752.7,1404.9,2457,0,50.4,0
0.066000,765.5,120.8,1382.5,176.4,2448.4,208.5,764.3,1416.1,2460.1,0,50.3,-0.1
0.068000,780.9,136.2,1404.5,194.9,2469.8,200.4,776.6,1427.4,2463.2,0,50.2,0
0.070000,797.3,160.2,1434.5,214.4,2482.2,180.1,789.5,1438.3,2466,0,50.2,0.2
0.072000,816.0,176.4,1466.5,229.1,2481.3,157.2,802.7,1448.6,2468.5,0,50.1,0.5
0.074000,830.8,169.0,1489.9,238.5,2474.5,139.0,816,1457.9,2470.7,0,50.1,0.7
0.076000,841.5,148.0,1500.2,254.0,2470.4,130.9,829,1465.9,2472.5,0,49.9,0.9
0.078000,851.5,133.2,1497.5,282.8,2470.3,138.7,841.6,1472.4,2473.8,0,49.7,1.1
0.080000,863.0,132.7,1486.6,314.2,2471.3,166.3,853.5,1477.1,2474.6,0,49.3,1.4
0.082000,875.6,146.5,1483.2,311.2,2473.4,197.8,864.5,1479.9,2475,0,48.9,1.6
0.084000,886.2,164.1,1494.9,266.2,2477.0,184.8,874.4,1480.8,2474.9,0,48.5,1.6
0.086000,884.0,166.4,1506.6,207.7,2477.7,138.8,883.1,1479.7,2474.4,0,48.2,1.5
0.088000,868.5,150.5,1504.4,161.8,2477.1,103.0,890.3,1476.7,2473.5,0,47.9,1.3
0.090000,853.3,136.0,1485.3,127.4,2476.8,83.1,896.1,1471.9,2472.4,0,47.7,0.9
0.092000,845.0,134.3,1457.0,99.7,2478.1,76.7,900.3,1465.6,2471.2,0,47.6,0.5
0.094000,847.2,150.8,1433.6,82.8,2482.5,79.5,903.1,1458,2469.9,0,47.5,0.2
0.096000,872.1,193.8,1417.8,83.8,2488.3,86.9,904.3,1449.3,2468.6,0,47.4,-0.1
0.098000,923.1,232.0,1409.3,104.0,2486.5,93.4,904.1,1440,2467.5,0,47.4,-0.4
0.100000,964.8,227.3,1405.4,130.9,2474.5,96.9,902.6,1430.4,2466.8,0,47.4,-0.6
0.102000,977.7,204.0,1402.1,143.9,2459.5,98.7,899.8,1420.9,2466.3,0,47.4,-0.9
0.104000,971.7,185.2,1398.3,136.7,2448.7,104.7,896,1411.8,2466.4,0,47.1,-1
0.106000,949.0,179.3,1396.7,120.3,2445.2,124.6,891.3,1403.4,2466.9,0,46.9,-1.1
0.108000,910.7,184.3,1399.5,110.4,2449.5,160.8,885.9,1396.1,2468,0,46.7,-1
0.110000,866.1,184.4,1404.2,109.8,2458.1,207.2,879.9,1390.1,2469.6,0,46.4,-1
0.112000,833.9,181.4,1402.8,116.2,2466.9,256.7,873.4,1385.6,2471.7,0,46.2,-0.8
0.114000,821.7,190.0,1386.9,116.9,2477.0,295.2,866.8,1382.7,2474.2,0,46.3,-0.7
0.116000,824.8,203.0,1371.5,95.1,2492.0,266.9,860,1381.6,2477.1,0,46.5,-0.5
0.118000,831.3,196.0,1376.5,69.3,2497.0,190.7,853.2,1382.1,2480.3,0,47,-0.2
0.120000,828.0,168.3,1390.0,51.4,2489.4,134.0,846.6,1384.2,2483.5,0,47.6,0
0.122000,820.4,141.2,1401.7,42.6,2479.1,106.9,840.2,1387.8,2486.7,0,48.1,0.3
0.124000,817.4,125.5,1409.4,41.8,2470.9,104.0,834,1392.6,2489.6,0,48.4,0.7
0.126000,817.7,118.0,1414.4,49.2,2467.5,127.5,828.2,1398.4,2492.2,0,48.5,1.2
0.128000,818.1,116.5,1417.0,65.7,2475.2,182.6,822.7,1405,2494.1,0,48.3,1.9
0.130000,817.7,117.6,1417.5,90.8,2504.7,279.0,817.5,1411.9,2495.3,0,47.9,2.7
0.132000,816.5,117.7,1415.3,117.7,2558.9,399.9,812.6,1418.9,2495.5,0,47.2,3.4
0.134000,815.0,116.4,1413.0,136.8,2580.6,486.2,808,1425.7,2494.7,0,46.2,3.7
0.136000,814.4,118.8,1423.8,142.2,2525.6,472.6,803.6,1431.9,2492.7,0,45.1,4.3
0.138000,816.3,129.3,1451.3,125.7,2478.1,407.1,799.5,1437.3,2489.5,0,44,8.8
0.140000,817.9,146.6,1468.6,101.6,2442.9,365.0,795.5,1441.6,2485,0,43,13.7
0.142000,816.5,167.1,1465.2,90.9,2413.9,347.4,791.6,1444.7,2479.2,0,42.4,14.5
0.144000,807.7,185.4,1448.6,91.6,2398.1,328.8,787.9,1446.4,2472.2,0,42.1,6.9
0.146000,790.1,192.4,1426.7,96.5,2398.5,297.5,784.2,1446.7,2464.1,0,42,-14.4
0.148000,773.8,185.3,1409.7,103.8,2406.6,277.5,780.5,1445.6,2455,0,41.9,-53.1
0.150000,768.3,173.8,1404.7,114.4,2418.8,279.1,776.9,1443.1,2445.1,0,41.7,-101
0.152000,773.5,163.2,1414.9,119.9,2441.1,279.2,773.4,1439.4,2434.7,0,41.4,-148.9
0.154000,777.1,148.4,1428.1,108.8,2469.3,246.9,770,1434.7,2423.8,0,41,-187.3
0.156000,766.7,124.4,1429.6,87.3,2487.6,206.1,766.7,1429.2,2412.9,0,40.8,-208
0.158000,750.4,101.5,1422.6,70.6,2490.0,192.1,763.5,1423.2,2402.1,0,40.6,-214.6
0.160000,740.4,90.8,1416.5,62.6,2479.8,208.0,760.5,1417,2391.8,0,40.5,-212.4
0.162000,739.4,92.0,1414.9,62.5,2459.4,251.1,757.8,1410.8,2382.2,0,40.4,-206.3
0.164000,744.7,97.2,1415.3,68.9,2434.4,310.5,755.4,1404.9,2373.6,0,40.2,-200.9
0.166000,753.3,100.2,1413.9,83.8,2410.4,380.6,753.4,1399.7,2366.2,0,40,-200
0.168000,760.9,99.5,1407.8,106.4,2384.3,463.7,751.7,1395.4,2360.2,0,39.7,-200
0.170000,763.3,95.9,1398.0,129.4,2337.8,576.4,750.5,1392.2,2355.8,0,39.4,-200
0.172000,757.6,91.3,1392.4,138.9,2254.5,698.1,749.8,1390.2,2353.1,0,39.1,-200
0.174000,745.5,87.2,1393.5,134.8,2158.2,743.0,749.6,1389.5,2352.2,0,38.8,-200
