time,f1,b1,f2,b2,f3,b3,f1p,f2p,f3p,f0,intensity,harmonicity
0.025000,776.2,109.5,1470.0,165.8,2563.6,116.8,807.9,1465.4,2552.7,91.2,59.1,11.3
0.027000,787.0,119.4,1467.6,190.9,2551.3,129.7,806.8,1465,2553,91.2,59.2,11
0.029000,789.8,117.7,1465.3,189.9,2547.1,129.1,805,1464.2,2553.4,91.2,59.2,10.4
0.031000,788.2,110.6,1463.2,173.5,2549.2,119.8,802.4,1463.2,2554.1,91.2,59.1,9.4
0.033000,786.1,106.6,1462.5,156.7,2553.5,109.5,799.3,1461.9,2554.9,91.2,58.9,8.4
0.035000,786.2,120.9,1465.2,158.0,2556.9,103.5,795.5,1460.3,2555.8,91.2,58.6,7.5
0.037000,790.7,169.8,1469.2,192.8,2555.0,103.8,791.2,1458.6,2556.8,91.2,58.3,6.5
0.039000,795.0,216.9,1467.6,225.6,2551.6,102.5,786.4,1456.6,2557.9,91.2,58,5.3
0.041000,794.7,228.1,1463.9,227.8,2550.9,96.9,781.1,1454.5,2559,91.2,57.8,4.2
0.043000,791.6,222.7,1460.1,214.3,2552.2,91.2,775.5,1452.3,2560.1,91.3,57.5,3.5
0.045000,785.8,213.3,1454.8,197.6,2554.7,89.1,769.7,1450,2561.2,91.3,57.2,3.6
0.047000,775.9,204.3,1445.9,185.4,2558.2,96.2,763.7,1447.7,2562.1,91.4,56.9,4.9
0.049000,764.8,197.6,1434.3,176.7,2561.9,112.9,757.5,1445.4,2563,91.4,56.5,7.2
0.051000,758.0,190.8,1427.2,163.3,2564.1,119.0,751.4,1443,2563.6,91.4,56.2,9.9
0.053000,753.1,178.9,1423.5,143.8,2564.2,111.1,745.3,1440.8,2564.1,91.5,55.9,12.1
0.055000,747.3,164.0,1421.1,123.8,2563.7,102.8,739.4,1438.7,2564.4,91.5,55.7,13.2
0.057000,741.9,157.4,1420.2,113.8,2564.9,107.1,733.7,1436.7,2564.3,91.6,55.4,12.9
0.059000,740.2,168.6,1422.0,118.6,2570.9,135.0,728.4,1434.8,2564.1,91.6,55.1,11.6
0.061000,742.0,182.5,1424.7,122.9,2580.3,164.8,723.4,1433.2,2563.5,91.6,54.8,9.8
0.063000,742.2,178.1,1425.7,114.1,2584.3,168.7,718.8,1431.7,2562.6,91.7,54.5,7.9
0.065000,739.7,160.8,1425.8,99.5,2584.5,158.2,714.7,1430.5,2561.5,91.7,54,6.5
0.067000,736.0,144.0,1426.3,89.8,2583.9,147.4,711.1,1429.5,2560,91.7,53.4,8.6
0.069000,730.6,141.8,1427.5,95.5,2580.7,145.2,708.2,1428.7,2558.3,91.7,52.5,14.2
0.071000,723.0,170.6,1429.5,136.2,2568.6,158.0,705.8,1428.2,2556.3,91.7,51.6,18.2
0.073000,716.3,218.1,1431.6,211.4,2549.6,173.8,704,1427.9,2554.1,91.7,50.7,15.9
0.075000,711.3,245.4,1435.0,254.2,2533.5,175.2,702.8,1427.8,2551.6,91.7,49.8,2.4
0.077000,705.4,255.7,1441.7,231.8,2525.7,167.5,702.2,1427.9,2549,91.7,49.1,-28.6
0.079000,695.8,299.7,1450.4,203.8,2525.1,169.7,702.3,1428.3,2546.3,0,48.6,-74
0.081000,674.8,426.7,1458.9,205.3,2530.7,191.5,702.9,1428.8,2543.5,0,48,-124.1
0.083000,640.7,622.4,1464.8,228.4,2539.2,221.2,704.1,1429.5,2540.7,0,47.6,-169.3
0.085000,616.9,804.7,1462.6,258.9,2546.8,235.0,705.7,1430.4,2537.8,0,47.2,-200
0.087000,625.9,923.6,1440.4,272.7,2548.0,223.2,707.8,1431.3,2535.1,0,47.1,-213
0.089000,640.5,925.9,1409.2,228.2,2539.6,197.4,710.4,1432.4,2532.4,0,47,-214.6
0.091000,646.8,764.5,1398.2,152.5,2523.5,176.7,713.3,1433.6,2530,0,47,-209.7
0.093000,657.7,622.5,1400.7,103.8,2507.7,177.3,716.5,1434.8,2527.7,0,47,-203.2
0.095000,684.5,570.4,1408.2,86.3,2501.2,199.0,719.9,1436.1,2525.7,0,46.8,-200
0.097000,731.1,583.3,1417.9,92.1,2504.3,207.1,723.4,1437.4,2524.1,0,46.5,-203.3
0.099000,798.5,609.9,1430.2,116.3,2504.8,169.4,727.1,1438.7,2522.8,0,46.2,-209.8
0.101000,859.8,599.4,1444.2,142.8,2500.1,122.2,730.8,1440,2521.9,0,45.8,-214.6
0.103000,871.2,557.6,1452.5,135.9,2495.9,93.2,734.4,1441.2,2521.4,0,45.5,-213
0.105000,834.4,507.6,1453.1,96.9,2495.6,80.5,738,1442.5,2521.4,0,45.6,-200
0.107000,786.6,461.1,1454.4,60.5,2501.2,82.3,741.4,1443.6,2521.8,0,46,-165.8
0.109000,750.6,442.5,1459.1,38.4,2515.4,101.7,744.5,1444.8,2522.7,0,46.4,-113.8
0.111000,733.3,455.2,1464.0,27.6,2540.4,140.5,747.5,1445.8,2524.1,0,46.9,-58.5
0.113000,730.7,452.7,1466.8,22.7,2567.1,178.1,750.1,1446.8,2526,0,47.1,-14.6
0.115000,730.8,381.3,1467.3,20.5,2574.2,185.6,752.4,1447.8,2528.3,0,47,3.3
0.117000,726.9,284.3,1466.7,21.3,2565.2,162.3,754.3,1448.7,2531.1,0,46.6,-14.6
0.119000,725.2,216.6,1466.6,27.1,2561.6,137.1,755.8,1449.5,2534.3,0,46,-58.5
0.121000,730.4,188.3,1466.5,39.6,2566.6,130.0,757,1450.3,2537.9,0,45.5,-113.8
0.123000,742.6,194.1,1459.6,55.6,2576.6,143.9,757.7,1451.1,2541.9,0,45.1,-165.8
0.125000,759.7,227.9,1441.1,64.2,2591.9,175.0,758.1,1451.9,2546.3,0,44.9,-200
0.127000,775.2,260.1,1421.8,59.4,2611.4,207.4,758.1,1452.6,2550.9,0,45,-213
0.129000,776.4,240.3,1412.7,47.6,2610.6,211.3,757.6,1453.3,2555.8,0,45,-214.6
0.131000,763.7,183.2,1410.2,36.5,2580.7,180.8,756.9,1454,2560.8,0,45,-209.8
0.133000,749.0,135.9,1410.6,29.6,2550.2,138.8,755.8,1454.7,2566.1,0,44.7,-203.3
0.135000,737.9,114.5,1412.1,27.3,2532.4,113.1,754.4,1455.4,2571.4,0,44.4,-200
0.137000,732.3,120.9,1413.9,30.2,2524.4,114.8,752.8,1456.2,2576.8,0,44,-200
0.139000,732.8,154.8,1416.7,39.7,2519.5,142.4,751,1456.9,2582.2,0,43.4,-200
0.141000,741.0,215.9,1422.0,58.7,2513.3,193.3,749,1457.7,2587.5,0,42.9,-200
0.143000,754.7,283.6,1431.9,89.9,2500.2,265.9,746.8,1458.5,2592.8,0,42.2,-200
0.145000,763.3,309.8,1452.4,135.0,2487.4,351.0,744.6,1459.4,2597.9,0,41.5,-200
0.147000,756.8,272.1,1492.7,182.8,2505.7,410.7,742.4,1460.2,2602.9,0,40.7,-200
0.149000,737.5,211.5,1553.2,206.4,2561.5,427.5,740.2,1461.1,2607.7,0,40.1,-200
0.151000,715.1,172.2,1593.1,181.8,2623.9,394.8,738,1462,2612.2,0,39.6,-200
0.153000,700.1,176.3,1576.1,136.6,2668.2,352.5,735.9,1462.9,2616.5,0,39.5,-200
0.155000,696.2,224.6,1520.8,88.1,2703.3,325.7,734,1463.8,2620.5,0,39.8,-200
0.157000,703.9,286.7,1479.3,51.3,2732.5,318.7,732.1,1464.7,2624.3,0,40.2,-200
0.159000,724.1,341.7,1461.8,33.0,2748.2,334.9,730.5,1465.6,2627.7,0,40.7,-200
0.161000,741.9,358.4,1456.8,25.5,2737.0,369.1,729.1,1466.5,2630.7,0,40.9,-200
0.163000,740.0,324.1,1455.8,23.2,2695.9,401.5,727.9,1467.3,2633.5,0,41.1,-200
0.165000,731.5,284.9,1456.2,25.6,2644.8,424.1,726.9,1468.1,2636,0,40.9,-200
0.167000,732.5,277.8,1457.9,33.0,2609.1,460.8,726.2,1468.9,2638.1,0,40.6,-200
0.169000,743.9,299.7,1461.5,44.7,2590.1,538.2,725.6,1469.7,2640,0,40.3,-200
0.171000,760.2,342.5,1465.1,59.6,2583.4,685.2,725.3,1470.4,2641.6,0,39.9,-200
0.173000,771.8,403.2,1462.1,78.4,2578.5,928.8,725.3,1471.1,2642.8,0,39.6,-200
0.175000,765.5,451.3,1443.4,93.9,2554.3,1129.3,725.4,1471.7,2643.9,0,39.4,-200
0.177000,743.7,417.4,1419.3,84.1,2574.4,1000.2,725.7,1472.2,2644.7,0,39.3,-200
0.179000,729.4,340.7,1408.2,62.8,2624.2,758.7,726.2,1472.7,2645.3,0,39.2,-200
0.181000,726.8,281.6,1411.5,47.4,2663.2,595.9,726.7,1473.2,2645.8,0,39.1,-200
0.183000,726.7,250.0,1424.5,38.9,2694.5,540.4,727.4,1473.6,2646.1,0,38.7,-200
0.185000,720.1,245.4,1445.5,34.9,2736.4,612.4,728.2,1473.9,2646.2,0,38.3,-200
0.187000,706.5,274.8,1466.1,33.6,2833.6,924.8,729,1474.2,2646.3,0,37.9,-200
0.189000,704.6,357.6,1476.7,35.2,2903.3,2168.3,729.8,1474.5,2646.3,0,37.5,-200
0.191000,729.9,479.1,1476.0,40.4,2602.8,3883.8,730.6,1474.7,2646.2,0,37.2,-200
0.193000,747.0,545.3,1468.6,49.3,2346.3,3813.3,731.4,1474.9,2646.1,0,37,-200
0.195000,734.8,544.0,1458.8,65.0,2392.4,2523.8,732.1,1475,2645.9,0,36.8,-200
0.197000,726.8,537.1,1456.4,92.4,2453.7,1929.2,732.7,1475.2,2645.8,0,36.6,-200
0.199000,730.8,482.7,1473.3,138.0,2578.0,1749.0,733.2,1475.2,2645.7,0,36.3,-200
0.201000,731.1,345.2,1513.7,182.7,2895.4,1013.2,733.5,1475.3,2645.6,0,35.9,-200
0.203000,721.4,226.5,1553.7,207.2,2748.9,789.5,733.8,1475.3,2645.5,0,35.3,-200
0.205000,711.1,170.0,1570.6,221.6,2712.8,782.6,733.8,1475.3,2645.5,0,35,-200
