time,f1,b1,f2,b2,f3,b3,f1p,f2p,f3p,f0,intensity,harmonicity
0.025000,646.5,93.2,1412.4,236.5,2377.2,88.7,643.3,1400.3,2328.6,146.2,69,8.4
0.027000,651.6,98.9,1410.1,200.9,2369.7,88.3,644.7,1400.9,2329.1,146.2,68.8,9.1
0.029000,657.4,103.5,1411.3,172.7,2364.3,88.8,647,1401.9,2329.9,146.2,68.6,9.4
0.031000,663.5,107.6,1413.7,155.4,2361.9,90.9,650.2,1403.3,2331.1,146.1,68.4,9.5
0.033000,669.3,114.2,1415.4,144.9,2359.7,96.6,654.2,1405.1,2332.6,146.1,68.2,9.8
0.035000,673.7,119.4,1415.7,136.9,2355.6,102.4,659,1407.2,2334.3,146.2,68.1,10.5
0.037000,677.8,121.4,1416.3,130.2,2350.1,106.5,664.5,1409.7,2336.3,146.2,68,11.9
0.039000,682.6,125.6,1418.7,127.0,2343.5,112.6,670.5,1412.4,2338.6,146.3,67.9,13.8
0.041000,687.7,133.9,1421.9,126.4,2337.4,121.1,677.1,1415.5,2341,146.3,67.8,15.8
0.043000,693.2,141.1,1424.2,124.7,2332.4,128.3,684.1,1418.7,2343.5,146.4,67.7,17.4
0.045000,697.7,146.1,1424.7,122.8,2327.7,132.8,691.5,1422.2,2346.2,146.6,67.5,18.2
0.047000,700.3,154.8,1424.0,121.5,2322.1,136.1,699,1425.8,2349,146.7,67.4,17.8
0.049000,701.2,166.8,1422.7,116.9,2317.8,133.6,706.6,1429.6,2351.7,146.9,67.2,16.6
0.051000,701.7,175.6,1421.9,109.2,2317.5,123.3,714.2,1433.4,2354.5,147.1,67,15
0.053000,703.0,185.5,1423.2,104.7,2320.1,110.6,721.7,1437.3,2357.2,147.4,66.9,13.2
0.055000,704.9,200.0,1427.4,106.4,2323.5,102.3,728.9,1441.2,2359.8,147.6,66.7,11.8
0.057000,707.1,212.1,1433.6,110.3,2327.0,100.0,735.8,1445.2,2362.3,147.9,66.6,10.5
0.059000,708.9,215.7,1441.0,116.7,2331.5,105.2,742.3,1449,2364.6,148.2,66.5,9
0.061000,711.2,212.4,1449.5,129.5,2337.7,117.2,748.3,1452.8,2366.7,148.5,66.5,7.7
0.063000,715.5,204.6,1457.8,147.1,2345.5,131.2,753.8,1456.5,2368.6,148.9,66.5,6.7
0.065000,721.9,198.9,1459.8,157.0,2352.7,141.7,758.5,1460.1,2370.3,149.3,66.5,6.3
0.067000,730.7,199.1,1454.6,154.9,2360.1,153.4,762.6,1463.5,2371.8,149.6,66.5,6.8
0.069000,740.8,200.5,1449.0,144.9,2368.6,169.2,766,1466.8,2372.9,150,66.6,8
0.071000,749.4,200.1,1449.2,136.1,2376.9,184.3,768.7,1469.9,2373.9,150.4,66.7,9.4
0.073000,759.4,203.6,1456.3,134.4,2386.5,199.9,770.7,1472.8,2374.6,150.8,66.7,10.6
0.075000,772.5,212.0,1468.3,139.3,2395.6,214.1,771.9,1475.6,2375,151.2,66.8,11.1
0.077000,787.2,218.3,1480.4,142.2,2397.9,220.1,772.4,1478.2,2375.2,151.6,66.8,10.7
0.079000,802.0,220.6,1488.2,137.1,2389.0,213.1,772.3,1480.6,2375.2,152,66.9,9.7
0.081000,814.8,219.1,1490.9,126.7,2375.5,197.4,771.6,1482.9,2375.1,152.3,66.9,8.3
0.083000,822.6,209.7,1490.3,115.7,2365.9,180.3,770.3,1485.1,2374.8,152.7,66.9,7
0.085000,821.3,192.0,1487.6,110.4,2365.7,170.8,768.6,1487.1,2374.4,153,66.8,5.9
0.087000,813.3,169.0,1483.4,114.7,2375.0,169.9,766.6,1489.1,2374,153.3,66.6,5
0.089000,804.3,146.4,1478.3,129.4,2391.9,169.5,764.3,1491,2373.5,153.6,66.4,4
0.091000,797.8,130.4,1472.7,142.9,2404.7,164.6,761.9,1492.9,2373.2,153.8,66.1,3.1
0.093000,792.2,118.8,1466.1,145.0,2409.5,167.1,759.5,1494.8,2372.9,154,65.8,2.6
0.095000,789.2,111.7,1465.0,138.6,2409.7,181.9,757.1,1496.7,2372.7,154.2,65.4,2.5
0.097000,788.3,107.6,1475.1,131.9,2403.8,200.8,754.9,1498.7,2372.8,154.4,65,3
0.099000,785.0,106.2,1497.3,130.2,2386.8,200.2,753.1,1500.8,2373.2,154.5,64.5,4.2
0.101000,775.9,109.4,1524.7,138.6,2368.8,180.8,751.7,1503,2373.8,154.6,64,5.6
0.103000,762.1,121.8,1551.2,165.1,2357.2,175.3,750.9,1505.3,2374.9,154.6,63.3,6.9
0.105000,747.5,148.0,1564.1,203.1,2350.8,201.6,750.8,1507.9,2376.4,154.6,62.7,7.7
0.107000,728.9,189.2,1559.0,224.5,2346.7,256.8,751.4,1510.6,2378.4,154.6,62.1,8.1
0.109000,706.2,240.7,1543.4,210.2,2346.4,322.0,752.8,1513.5,2381,154.5,61.5,8.3
0.111000,691.4,297.2,1530.3,184.3,2351.8,354.6,755.2,1516.7,2384.1,154.4,61,8.3
0.113000,688.1,366.3,1522.0,166.8,2360.4,337.6,758.5,1520.2,2387.8,154.3,60.5,8.1
0.115000,687.7,434.9,1519.0,167.1,2367.1,306.8,762.9,1523.9,2392.2,154.2,60.1,7.8
0.117000,678.1,510.3,1520.2,189.0,2372.0,298.0,768.4,1527.8,2397.3,154,59.6,7.4
0.119000,663.5,629.0,1528.3,235.0,2378.4,311.9,774.9,1532,2403,153.8,59.2,6.9
0.121000,660.2,812.5,1544.4,286.0,2396.4,334.8,782.4,1536.5,2409.4,153.6,58.8,6.3
0.123000,687.9,1024.0,1559.6,319.3,2433.7,365.2,791.1,1541.2,2416.6,153.4,58.4,5.6
0.125000,768.9,1061.8,1565.0,335.9,2483.9,403.7,800.7,1546.1,2424.4,153.1,58,5
0.127000,872.2,891.3,1571.4,342.4,2537.3,433.1,811.3,1551.2,2432.9,152.9,57.6,7.7
0.129000,921.0,701.1,1573.4,319.1,2570.7,436.7,822.7,1556.4,2442,152.6,57.3,13.6
0.131000,915.4,618.9,1558.7,278.0,2568.3,417.1,835,1561.8,2451.8,152.4,56.9,17.9
0.133000,886.3,590.1,1538.9,236.1,2537.2,369.8,847.9,1567.2,2462.2,152.2,56.5,15.8
0.135000,880.8,563.8,1532.3,219.6,2502.9,309.7,861.4,1572.7,2473.1,151.9,56.1,2.5
0.137000,923.3,489.8,1541.7,237.9,2482.8,263.4,875.4,1578.2,2484.5,151.7,55.8,-28.4
0.139000,973.9,357.2,1562.3,264.9,2473.1,237.2,889.6,1583.7,2496.4,151.5,55.5,-73.8
0.141000,998.2,263.8,1581.3,278.3,2469.2,231.7,904.1,1589,2508.7,0,55.2,-124
0.143000,1005.2,220.7,1601.2,291.9,2472.5,255.0,918.5,1594.2,2521.2,0,54.9,-169.3
0.145000,1000.6,207.2,1624.9,301.9,2485.2,320.2,932.8,1599.1,2534.1,0,54.5,-200
0.147000,992.0,196.9,1647.9,302.2,2508.6,435.7,946.8,1603.8,2547.1,0,54.2,-213
0.149000,989.8,175.7,1659.7,312.2,2536.1,588.3,960.3,1608.2,2560.2,0,53.8,-214.6
0.151000,993.6,151.0,1649.4,354.4,2538.4,684.0,973.2,1612.2,2573.4,0,53.4,-209.7
0.153000,994.7,133.3,1605.1,402.6,2513.2,627.1,985.4,1615.7,2586.6,0,53.1,-203.2
0.155000,988.6,124.9,1563.1,360.8,2510.2,500.8,996.7,1618.8,2599.6,0,52.8,-200
0.157000,977.1,120.2,1561.4,262.1,2522.8,422.1,1007,1621.4,2612.5,0,52.5,-200
0.159000,963.4,120.7,1578.3,182.3,2536.8,382.5,1016.2,1623.5,2625.2,0,52.1,-200
0.161000,953.4,124.7,1592.5,144.1,2553.3,368.6,1024.1,1624.9,2637.5,0,51.8,-200
0.163000,958.7,123.6,1599.7,141.9,2581.6,388.3,1030.8,1625.8,2649.5,0,51.7,-200
0.165000,980.5,107.9,1596.8,171.1,2622.2,432.9,1036.1,1626,2661.1,0,51.5,-200
0.167000,1000.8,85.5,1583.7,205.4,2668.1,452.2,1040.1,1625.6,2672.3,0,51.5,-200
0.169000,1012.9,68.1,1571.8,210.1,2713.8,410.3,1042.6,1624.6,2682.9,0,51.4,-200
0.171000,1019.7,61.1,1580.5,190.2,2752.3,350.7,1043.6,1622.9,2693.1,0,51.2,-200
0.173000,1025.4,65.5,1608.3,172.4,2783.4,311.4,1043.3,1620.6,2702.6,0,50.8,-200
0.175000,1030.2,83.8,1639.8,165.1,2804.9,306.9,1041.7,1617.7,2711.6,0,50.1,-200
0.177000,1032.6,120.6,1663.6,164.0,2819.6,336.1,1038.7,1614.1,2720.1,0,49.4,-200
0.179000,1027.2,167.6,1673.9,163.1,2823.4,389.0,1034.6,1610,2727.9,0,48.7,-200
0.181000,1017.0,165.4,1673.6,157.1,2810.8,418.7,1029.3,1605.4,2735.1,0,48.2,-200
0.183000,1017.0,118.6,1666.1,153.2,2796.8,400.2,1023,1600.3,2741.8,0,48,-200
0.185000,1021.5,93.1,1648.2,160.1,2794.7,370.4,1016,1594.8,2747.9,0,48,-200
0.187000,1022.0,97.5,1618.1,178.5,2799.7,354.1,1008.2,1588.9,2753.5,0,48.1,-200
0.189000,1015.9,128.1,1576.6,191.4,2798.6,355.7,999.9,1582.7,2758.6,0,48.2,-200
0.191000,1001.8,178.9,1539.2,176.6,2782.1,389.1,991.2,1576.2,2763.3,0,48.2,-200
0.193000,979.2,257.7,1517.9,149.9,2752.6,470.4,982.4,1569.5,2767.5,0,48.2,-200
0.195000,956.2,356.9,1513.2,140.1,2725.0,586.1,973.7,1562.7,2771.3,0,48,-200
0.197000,942.4,422.5,1519.1,154.1,2713.4,667.3,965.1,1555.9,2774.8,0,47.8,-200
0.199000,941.1,390.0,1535.9,191.0,2703.2,633.4,957,1549.1,2778.1,0,47.6,-200
0.201000,941.7,321.1,1557.4,231.7,2682.6,538.3,949.5,1542.4,2781.1,0,47.3,-200
0.203000,936.2,281.8,1571.8,261.6,2666.5,441.4,942.8,1535.8,2783.9,0,47,-200
0.205000,922.5,297.8,1570.0,283.4,2668.8,379.7,937,1529.5,2786.7,0,46.5,-200
0.207000,902.4,377.1,1557.4,311.4,2696.8,358.4,932.4,1523.5,2789.3,0,45.9,-200
0.209000,881.4,537.5,1542.1,335.3,2758.8,378.1,929.1,1517.8,2792,0,45.3,-200
0.211000,869.6,742.5,1537.9,320.9,2844.6,409.7,927.2,1512.5,2794.7,0,45,-200
0.213000,885.7,978.9,1542.7,271.1,2920.4,415.6,926.8,1507.7,2797.5,0,45.1,-200
0.215000,956.1,1281.7,1536.0,220.2,2950.1,440.9,928.1,1503.4,2800.4,0,45.6,-200
0.217000,1126.9,1596.9,1516.8,174.3,2957.0,527.8,931.1,1499.6,2803.4,0,46.2,-200
0.219000,1269.3,1715.7,1497.5,133.7,2957.7,676.7,935.9,1496.4,2806.7,0,46.8,-200
0.221000,1272.3,1753.6,1487.8,108.1,2940.0,795.6,942.4,1493.7,2810.2,0,47.2,-200
0.223000,1132.4,1714.6,1486.7,95.5,2874.2,779.4,950.7,1491.7,2813.8,0,47.3,-200
0.225000,1034.9,1470.1,1491.9,96.3,2806.3,648.1,960.9,1490.3,2817.8,0,46.8,-200
0.227000,1029.3,1331.3,1499.3,107.2,2775.0,528.5,972.7,1489.5,2822,0,46.2,-200
0.229000,993.5,1259.2,1502.8,121.8,2764.6,457.8,986.2,1489.2,2826.4,0,45.4,-200
0.231000,931.8,1104.2,1497.6,133.3,2752.5,407.0,1001.2,1489.6,2831.1,0,44.4,-200
0.233000,884.1,897.1,1484.8,143.9,2739.6,347.0,1017.6,1490.5,2835.9,0,43.4,-200
0.235000,846.2,756.3,1470.2,155.9,2734.1,309.6,1035.4,1491.9,2841,0,42.3,-200
0.237000,811.7,713.6,1456.9,168.2,2731.7,313.9,1054.2,1493.7,2846.3,0,41.3,-200
0.239000,790.9,771.5,1445.3,173.1,2732.8,359.1,1074,1496,2851.7,0,40.7,-200
0.241000,804.4,877.4,1434.9,177.7,2745.3,416.8,1094.5,1498.7,2857.2,0,41,-200
0.243000,872.0,943.8,1427.5,203.7,2774.6,460.3,1115.6,1501.7,2862.8,0,41.9,-200
0.245000,975.4,921.0,1431.2,265.0,2810.4,473.0,1136.9,1505,2868.4,0,42.8,-200
0.247000,1084.2,832.1,1456.9,363.4,2851.2,466.4,1158.4,1508.4,2873.9,0,43.4,-200
0.249000,1157.8,760.7,1501.1,440.3,2899.4,457.8,1179.6,1512,2879.4,0,44,-200
0.251000,1240.8,840.0,1503.9,441.2,2941.8,458.6,1200.5,1515.7,2884.7,0,44.6,-200
0.253000,1374.4,1043.0,1475.3,350.2,2971.0,456.6,1220.7,1519.3,2889.9,0,45.1,-200
0.255000,1473.3,254.0,1484.8,1185.9,2986.3,444.6,1240.1,1522.9,2894.8,0,45.2,-200
0.257000,1488.3,204.6,1521.7,1199.2,2995.5,424.5,1258.4,1526.4,2899.4,0,45.4,-200
0.259000,1457.0,1093.2,1513.2,187.5,3002.5,401.9,1275.4,1529.7,2903.7,0,45.5,-200
0.261000,1398.5,890.6,1532.3,186.3,3008.1,389.6,1290.9,1532.7,2907.6,0,45.4,-200
0.263000,1389.2,672.6,1542.9,208.7,3007.3,402.2,1304.7,1535.5,2911.1,0,45.1,-200
0.265000,1409.8,510.7,1548.5,276.0,2998.7,446.7,1316.7,1537.9,2914.1,0,44.7,-200
0.267000,1417.3,376.1,1576.7,421.4,2978.6,514.0,1326.7,1539.9,2916.6,0,44.1,-200
0.269000,1394.3,369.8,1622.9,540.7,2934.0,567.8,1334.6,1541.5,2918.6,0,43.4,-200
0.271000,1362.5,516.9,1625.0,583.9,2874.0,588.8,1340.3,1542.7,2920,0,42.3,-200
0.273000,1252.0,933.2,1602.2,483.6,2807.8,635.2,1343.8,1543.4,2920.9,0,41.2,-200
0.275000,988.0,1488.7,1583.3,400.8,2732.2,767.6,1344.9,1543.7,2921.2,0,40.5,-200
