time,f1,b1,f2,b2,f3,b3,f1p,f2p,f3p,f0,intensity,harmonicity
0.025000,673.6,61.8,1598.0,133.2,2813.7,196.1,700.4,1559.4,2863.1,79.2,71.9,0.6
0.027000,670.0,58.1,1573.2,143.1,2841.2,221.7,700.2,1558.7,2862.8,80.2,71.9,0.5
0.029000,667.5,52.2,1546.1,131.9,2867.7,225.2,699.9,1557.6,2862.4,81.4,72,0.7
0.031000,670.0,46.9,1533.4,115.6,2884.2,229.0,699.6,1556.1,2861.7,82.7,72.1,1.2
0.033000,677.5,44.5,1535.2,102.8,2890.9,259.4,699.2,1554.1,2860.9,84.1,72.1,1.7
0.035000,686.8,46.9,1544.0,94.6,2893.6,314.7,698.7,1551.7,2859.9,85.7,72.2,2
0.037000,694.0,51.1,1551.1,88.1,2893.8,370.3,698.3,1548.8,2858.7,87.5,72.2,2.2
0.039000,696.7,52.9,1551.5,84.0,2881.7,351.9,697.9,1545.4,2857.3,89.4,72.1,2.4
0.041000,696.0,51.5,1544.7,84.8,2852.8,276.1,697.6,1541.7,2855.7,91.4,72,2.5
0.043000,696.2,49.2,1532.6,91.0,2822.5,209.1,697.4,1537.4,2854,93.5,71.9,2.6
0.045000,699.6,47.2,1519.5,99.3,2805.8,178.7,697.5,1532.8,2852,95.8,71.8,2.6
0.047000,705.7,46.3,1509.3,103.6,2802.1,181.1,697.7,1527.6,2849.8,98.2,71.8,2.5
0.049000,712.5,48.4,1506.8,100.5,2816.5,207.7,698.2,1522.1,2847.4,100.6,71.8,2.3
0.051000,718.1,51.9,1511.4,91.9,2846.2,228.2,699.1,1516.1,2844.8,103.2,71.9,2.1
0.053000,722.2,53.8,1516.0,82.4,2862.4,203.1,700.3,1509.7,2842,105.8,71.9,2.1
0.055000,724.4,53.9,1514.0,81.7,2849.5,153.0,701.9,1503,2839,108.4,71.9,2.4
0.057000,725.7,53.9,1504.7,91.4,2833.9,117.5,703.8,1495.9,2835.8,0,71.8,3.3
0.059000,727.8,55.0,1489.2,109.1,2825.8,100.9,706.3,1488.5,2832.3,113.7,71.7,4.5
0.061000,731.7,58.2,1473.2,128.9,2825.0,97.2,709.1,1480.9,2828.7,116.4,71.6,5.9
0.063000,737.6,63.1,1459.3,146.8,2827.8,100.8,712.4,1473,2824.9,119,71.4,7.3
0.065000,742.7,65.7,1451.5,154.1,2830.8,108.9,716.1,1465,2820.8,121.5,71.3,8.4
0.067000,745.6,65.7,1448.9,149.4,2833.4,120.6,720.3,1456.8,2816.6,124,71.2,9.4
0.069000,747.4,65.7,1450.0,137.9,2837.2,135.2,724.8,1448.6,2812.1,126.3,71.1,10.3
0.071000,749.8,67.0,1455.3,128.8,2840.0,144.7,729.7,1440.5,2807.5,128.6,71,11.1
0.073000,753.9,69.8,1464.3,126.9,2836.2,145.5,735,1432.4,2802.7,130.7,70.8,11.6
0.075000,758.1,74.6,1471.4,136.6,2823.5,143.5,740.5,1424.6,2797.8,132.7,70.6,11.9
0.077000,760.7,80.1,1470.8,162.8,2808.0,144.3,746.2,1416.9,2792.7,134.6,70.4,11.7
0.079000,762.0,84.4,1458.5,211.8,2795.3,145.9,752,1409.7,2787.4,136.3,70.1,11.1
0.081000,763.6,88.9,1432.6,288.6,2785.0,148.8,757.9,1402.8,2782.1,137.9,69.7,10.3
0.083000,766.5,98.3,1382.7,414.6,2771.2,158.2,763.9,1396.4,2776.6,139.3,69.4,9.5
0.085000,770.5,109.4,1324.4,543.1,2755.8,172.9,769.7,1390.6,2771.1,140.6,69.1,9.1
0.087000,772.2,114.4,1316.0,588.7,2744.9,191.1,775.4,1385.5,2765.5,141.8,68.8,8.9
0.089000,769.4,116.9,1358.7,537.9,2736.7,212.4,780.9,1381.1,2759.8,142.9,68.6,8.7
0.091000,765.9,122.3,1390.2,480.9,2728.8,230.4,786.1,1377.5,2754.1,143.8,68.3,8.7
0.093000,763.9,128.8,1399.1,461.7,2726.5,247.5,791,1374.7,2748.5,144.6,68.2,8.9
0.095000,764.4,135.2,1388.2,482.6,2731.3,269.4,795.4,1372.9,2742.8,145.4,68.1,9.4
0.097000,766.7,141.4,1365.6,522.0,2735.0,294.4,799.3,1371.9,2737.2,146,68,10.5
0.099000,770.6,144.3,1349.4,540.2,2729.0,306.5,802.7,1372,2731.7,146.6,68,12.1
0.101000,774.6,144.2,1355.4,512.6,2715.5,296.3,805.5,1373.1,2726.4,147.1,68,13.8
0.103000,777.4,143.8,1372.9,461.3,2698.7,276.0,807.7,1375.1,2721.1,147.5,67.9,15.3
0.105000,777.5,142.0,1385.1,421.3,2685.8,261.6,809.3,1378.2,2716,147.8,67.9,16.2
0.107000,776.4,139.6,1389.4,403.7,2679.2,256.6,810.3,1382.3,2711.1,148.2,67.8,16.5
0.109000,776.7,140.9,1388.3,414.3,2678.5,257.9,810.7,1387.3,2706.5,148.4,67.7,16.4
0.111000,778.8,144.4,1388.2,446.3,2682.5,258.5,810.4,1393.3,2702.1,148.7,67.6,16
0.113000,782.8,145.5,1399.4,483.1,2692.8,255.5,809.6,1400.2,2697.9,148.9,67.5,15.5
0.115000,787.4,145.4,1424.0,506.7,2709.3,251.6,808.3,1407.8,2694.1,149.1,67.4,15.1
0.117000,791.2,146.6,1451.2,516.2,2726.8,248.9,806.5,1416.3,2690.6,149.2,67.3,14.5
0.119000,793.4,148.7,1469.0,519.4,2736.7,250.6,804.3,1425.4,2687.5,149.4,67.3,13.8
0.121000,795.2,153.2,1474.0,532.0,2733.7,258.1,801.8,1435.1,2684.7,149.5,67.2,13.1
0.123000,797.9,160.7,1470.0,570.6,2720.7,268.2,799,1445.3,2682.3,149.7,67.2,12.5
0.125000,801.4,166.0,1459.3,636.8,2707.8,274.1,796.1,1455.9,2680.4,149.8,67.2,12.4
0.127000,807.2,167.9,1442.4,746.4,2700.2,278.6,793.2,1466.7,2678.9,149.9,67.2,12.7
0.129000,817.6,168.2,1412.0,954.1,2694.9,291.2,790.3,1477.7,2677.9,150,67.2,13.3
0.131000,828.9,164.0,1353.0,1264.2,2687.7,315.0,787.6,1488.7,2677.3,150,67.1,14.2
0.133000,835.4,156.3,1273.2,1541.8,2682.4,342.9,785.2,1499.7,2677.2,150.1,67,15
0.135000,835.4,153.3,1297.7,1612.1,2688.4,364.4,783.1,1510.5,2677.6,150.2,66.9,15.5
0.137000,832.9,152.0,1423.1,1523.9,2700.2,385.7,781.5,1521,2678.4,150.3,66.8,15.8
0.139000,831.0,147.7,1532.8,1381.3,2706.9,412.4,780.5,1531.1,2679.8,150.3,66.7,15.9
0.141000,831.1,141.0,1618.5,1278.3,2703.4,434.3,780.2,1540.6,2681.7,150.4,66.6,15.9
0.143000,831.7,133.4,1691.4,1112.0,2683.1,438.5,780.7,1549.6,2684.1,150.4,66.5,15.8
0.145000,830.5,127.1,1705.7,898.6,2647.5,416.9,782,1557.9,2686.9,150.4,66.3,15.6
0.147000,827.5,123.3,1690.9,714.7,2616.9,392.4,784.2,1565.5,2690.3,150.5,66.1,15.2
0.149000,823.5,123.5,1681.9,580.6,2607.9,397.6,787.3,1572.2,2694.1,150.5,65.9,14.6
0.151000,820.1,125.9,1687.0,499.4,2619.1,435.0,791.4,1578.1,2698.4,150.5,65.7,14
0.153000,818.0,128.7,1701.3,451.1,2639.5,498.0,796.5,1583,2703.2,150.5,65.5,13.3
0.155000,818.5,133.2,1717.7,436.7,2655.3,594.2,802.7,1587,2708.4,150.5,65.2,12.5
0.157000,819.9,144.7,1729.9,463.6,2663.9,755.1,809.8,1590.1,2714,150.4,65,11.6
0.159000,818.8,168.2,1718.1,533.2,2681.6,949.3,817.9,1592.2,2719.9,150.4,64.8,10.6
0.161000,811.2,194.7,1637.9,543.9,2722.0,937.8,827,1593.4,2726.3,150.3,64.5,9.6
0.163000,797.4,208.0,1538.4,379.0,2786.9,705.1,836.9,1593.8,2733,150.3,64.2,8.6
0.165000,784.6,206.9,1492.1,226.4,2841.4,503.5,847.7,1593.2,2740,150.2,63.9,7.8
0.167000,775.8,208.2,1469.7,140.7,2868.3,404.4,859.2,1591.9,2747.3,150.1,63.6,7.2
0.169000,775.5,225.1,1459.0,99.3,2874.8,403.9,871.4,1589.8,2754.9,150,63.3,6.6
0.171000,787.2,256.8,1459.9,89.2,2863.5,489.0,884.1,1587,2762.7,149.8,62.9,6.2
0.173000,814.6,286.4,1473.6,99.8,2823.4,604.0,897.2,1583.6,2770.7,149.7,62.7,5.8
0.175000,852.2,284.7,1497.0,119.4,2783.5,622.5,910.7,1579.7,2778.9,149.5,62.4,5.4
0.177000,885.9,262.0,1519.7,135.2,2769.3,576.2,924.4,1575.4,2787.2,149.3,62.2,5
0.179000,908.4,248.7,1526.2,138.7,2762.0,521.5,938.1,1570.8,2795.6,149.1,62,4.5
0.181000,920.3,258.0,1515.9,126.2,2751.8,464.5,951.9,1565.9,2804.1,148.9,61.7,4.2
0.183000,926.9,290.8,1502.7,103.9,2746.7,395.3,965.4,1560.9,2812.7,148.6,61.4,3.9
0.185000,934.8,338.6,1498.0,84.8,2753.1,334.3,978.7,1555.9,2821.2,148.4,61.1,3.8
0.187000,960.6,374.7,1503.0,71.9,2770.3,278.3,991.5,1550.8,2829.8,148.1,60.8,4.1
0.189000,1016.2,372.5,1516.9,66.2,2797.2,222.4,1003.9,1546,2838.3,147.8,60.5,4.6
0.191000,1072.0,332.5,1535.2,67.0,2821.2,181.2,1015.7,1541.3,2846.7,147.5,60.2,5.2
0.193000,1098.4,267.8,1557.9,69.1,2842.7,152.7,1026.7,1536.9,2855,147.2,60,5.7
0.195000,1095.7,204.5,1580.6,68.1,2864.5,128.3,1037,1532.8,2863.2,146.8,59.8,5.9
0.197000,1087.3,160.7,1598.2,65.3,2886.9,98.0,1046.5,1529.1,2871.2,146.5,59.5,5.8
0.199000,1085.5,151.3,1602.3,66.2,2902.5,68.0,1055.2,1525.9,2879,146.2,59.3,5.4
0.201000,1091.5,184.0,1591.4,75.7,2908.0,50.5,1062.9,1523.1,2886.7,145.8,59.1,5
0.203000,1105.4,259.3,1569.7,98.2,2910.6,43.8,1069.7,1520.8,2894.1,145.5,58.9,4.6
0.205000,1132.3,327.3,1544.8,130.5,2914.8,45.0,1075.5,1519.1,2901.3,145.1,58.7,4.3
0.207000,1172.5,330.6,1529.4,161.3,2921.7,50.4,1080.5,1517.8,2908.2,144.8,58.5,4.2
0.209000,1206.0,275.6,1541.4,169.7,2930.8,58.4,1084.6,1517,2914.8,144.5,58.3,4.3
0.211000,1207.1,236.7,1563.3,144.6,2938.3,69.7,1087.8,1516.7,2921.2,144.2,58.2,4.4
0.213000,1155.8,230.3,1571.7,105.5,2940.9,88.7,1090.1,1516.8,2927.2,143.8,58.1,4.4
0.215000,1079.1,200.5,1570.8,76.5,2935.6,109.5,1091.8,1517.4,2932.9,143.5,58.1,4.1
0.217000,1033.2,149.4,1565.8,60.0,2924.7,126.5,1092.8,1518.3,2938.3,143.3,58,6.6
0.219000,1018.5,121.3,1559.4,56.0,2921.7,146.7,1093.1,1519.5,2943.4,0,57.9,12
0.221000,1018.2,121.8,1555.2,64.3,2935.8,181.0,1093,1521,2948.1,0,57.6,15.7
0.223000,1028.2,149.9,1553.0,85.8,2961.7,226.9,1092.4,1522.6,2952.4,0,57.3,13.1
0.225000,1052.5,212.8,1550.0,120.5,2982.8,253.9,1091.5,1524.4,2956.4,0,56.8,-0.4
0.227000,1092.5,301.3,1537.7,155.5,2988.8,256.2,1090.3,1526.3,2960.1,0,56.2,-31
0.229000,1118.0,380.3,1514.5,151.2,2982.6,244.2,1089,1528.1,2963.3,0,55.6,-75.8
0.231000,1101.6,409.4,1499.7,115.6,2974.3,225.0,1087.6,1529.9,2966.2,0,55.1,-125.2
0.233000,1070.3,401.7,1492.6,89.0,2969.3,199.9,1086.2,1531.6,2968.7,0,54.5,-169.7
0.235000,1043.7,397.5,1486.4,81.7,2967.6,178.9,1084.9,1533.2,2970.8,0,53.9,-200
0.237000,1023.3,411.2,1477.7,90.1,2965.4,169.3,1083.8,1534.5,2972.6,0,53.2,-212.8
0.239000,1023.1,430.3,1467.2,116.8,2961.1,174.4,1082.8,1535.5,2973.9,0,52.4,-214.4
0.241000,1064.1,411.3,1470.9,156.4,2957.0,196.6,1082.1,1536.3,2974.9,0,51.7,-209.6
0.243000,1114.7,324.2,1510.4,174.2,2955.7,244.3,1081.6,1536.8,2975.5,0,51.1,-203.2
0.245000,1133.0,256.7,1554.3,148.6,2959.9,318.1,1081.5,1537,2975.7,0,50.7,-200
