time,f1,b1,f2,b2,f3,b3,f1p,f2p,f3p,f0,intensity,harmonicity
0.025000,630.0,95.3,1553.8,103.0,2202.8,78.6,646.2,1540.9,2208.5,148,76.8,1.4
0.027000,638.0,98.9,1547.4,108.6,2212.3,93.8,647.2,1541.2,2209.4,147.8,76.6,1.8
0.029000,646.0,101.5,1546.0,115.0,2221.3,105.1,648.8,1541.6,2210.8,147.6,76.4,2.5
0.031000,652.5,105.0,1549.0,122.6,2225.2,104.5,651,1542,2212.6,147.3,76.1,3.4
0.033000,656.9,111.5,1553.2,132.4,2225.1,95.9,653.5,1542.5,2214.9,147.1,75.9,4.3
0.035000,660.0,117.9,1554.7,139.9,2224.1,86.7,656.4,1543,2217.5,146.9,75.7,5.3
0.037000,663.6,122.7,1551.3,143.4,2223.4,81.6,659.3,1543.3,2220.2,146.6,75.5,6.5
0.039000,667.0,128.5,1544.0,145.8,2223.1,81.4,662.2,1543.4,2223.1,146.4,75.3,8
0.041000,670.0,134.4,1536.8,147.3,2222.8,83.7,664.8,1543.3,2226,146.1,75.1,9.5
0.043000,673.9,139.6,1531.4,147.6,2222.9,85.5,667.1,1542.7,2228.8,145.9,75,10.7
0.045000,677.1,146.3,1528.0,149.9,2222.8,87.5,669,1541.8,2231.3,145.7,74.9,11.2
0.047000,677.3,153.7,1525.5,153.7,2222.1,91.6,670.2,1540.4,2233.6,145.4,74.7,10.9
0.049000,675.6,157.3,1523.4,152.5,2221.6,95.3,670.8,1538.5,2235.6,145.2,74.6,9.8
0.051000,673.9,159.0,1520.8,144.3,2223.5,96.0,670.7,1536.1,2237.1,144.9,74.4,8.5
0.053000,670.5,165.0,1516.4,131.7,2227.6,95.7,670,1533.1,2238.4,144.7,74.3,7.5
0.055000,664.9,174.5,1512.3,118.5,2231.0,95.2,668.7,1529.7,2239.2,144.5,74.1,7.1
0.057000,660.3,186.3,1511.6,108.6,2232.7,92.8,666.8,1525.8,2239.7,144.3,74,7.6
0.059000,657.9,205.3,1513.2,105.0,2234.6,89.7,664.6,1521.6,2239.9,144.1,73.9,8.8
0.061000,655.9,229.8,1514.0,105.9,2237.6,88.3,662.1,1517.1,2239.9,144,73.8,10.2
0.063000,654.1,255.5,1513.0,107.6,2241.4,88.1,659.6,1512.3,2239.8,143.8,73.7,11.6
0.065000,653.1,282.9,1510.8,111.2,2245.2,90.1,657.2,1507.6,2239.7,143.6,73.5,12.5
0.067000,652.4,319.4,1508.5,120.3,2249.2,96.3,655.1,1502.8,2239.6,143.5,73.4,13.1
0.069000,651.8,355.4,1507.9,129.6,2252.7,104.4,653.5,1498.2,2239.8,143.4,73.3,13.6
0.071000,651.9,376.2,1510.7,130.3,2255.3,108.5,652.4,1493.9,2240.3,143.3,73.2,13.9
0.073000,651.6,392.5,1515.7,124.9,2256.6,109.5,652.2,1489.9,2241.2,143.2,73.1,13.9
0.075000,650.8,411.4,1518.7,121.2,2255.7,110.4,652.8,1486.4,2242.5,143.1,73.1,13.8
0.077000,651.9,425.7,1517.1,122.0,2253.8,111.5,654.2,1483.4,2244.4,143.1,73.1,13.2
0.079000,656.1,436.0,1510.7,127.6,2252.9,114.1,656.6,1481.1,2246.9,143,73,12.1
0.081000,660.8,447.7,1500.7,137.3,2254.0,121.2,659.9,1479.3,2250,143,73,11
0.083000,667.2,453.8,1489.4,145.8,2257.1,129.1,663.9,1478.2,2253.7,143,72.9,10
0.085000,678.3,448.0,1481.2,148.6,2261.2,126.4,668.6,1477.8,2257.9,142.9,72.8,9.6
0.087000,690.3,444.7,1473.8,152.8,2265.0,115.1,673.8,1477.9,2262.7,142.9,72.8,9.8
0.089000,696.2,457.0,1464.1,163.6,2267.6,104.7,679.4,1478.6,2267.8,142.9,72.7,10.5
0.091000,694.2,477.7,1454.9,175.8,2269.3,98.7,685.2,1479.9,2273.4,143,72.7,11.4
0.093000,687.8,498.4,1448.6,187.2,2270.9,96.6,690.9,1481.5,2279.2,143,72.6,12.3
0.095000,682.1,511.9,1444.9,199.6,2272.6,99.8,696.4,1483.5,2285.1,143,72.5,13
0.097000,682.4,511.1,1444.5,213.4,2274.5,106.7,701.5,1485.8,2291.1,143.1,72.5,13.6
0.099000,692.0,502.8,1450.9,226.1,2276.5,110.9,706.1,1488.3,2297.1,143.1,72.4,14.2
0.101000,707.7,505.7,1462.3,240.9,2277.8,112.2,710.1,1490.9,2302.9,143.1,72.4,14.6
0.103000,724.4,522.0,1475.3,262.9,2279.8,115.6,713.4,1493.5,2308.4,143.2,72.3,14.9
0.105000,730.5,524.0,1487.1,283.9,2285.7,122.3,716.1,1496.1,2313.8,143.3,72.2,14.7
0.107000,718.9,486.0,1496.5,298.6,2297.3,135.6,718.1,1498.7,2318.7,143.3,72.2,14
0.109000,702.1,423.5,1504.8,317.8,2316.5,163.9,719.7,1501.2,2323.4,143.4,72.1,12.9
0.111000,697.8,377.9,1519.1,345.9,2344.4,198.0,720.9,1503.6,2327.8,143.4,72.1,11.6
0.113000,709.1,359.5,1548.4,360.0,2374.1,204.2,722.1,1506,2331.8,143.5,72.1,10.2
0.115000,729.7,358.9,1574.0,328.1,2385.6,177.5,723.4,1508.3,2335.7,143.6,72.1,9
0.117000,744.2,351.9,1575.8,289.9,2382.1,147.5,725.2,1510.7,2339.3,143.6,72.2,7.9
0.119000,745.0,323.0,1559.0,278.0,2371.9,126.6,727.7,1513.1,2342.9,143.7,72.4,6.7
0.121000,743.9,270.5,1529.6,290.1,2361.6,114.4,731.4,1515.6,2346.6,143.8,72.6,5.6
0.123000,746.6,209.8,1492.4,313.2,2353.8,107.8,736.4,1518.4,2350.3,143.8,72.8,4.7
0.125000,752.1,166.0,1475.2,329.3,2350.4,108.3,743,1521.4,2354.3,143.9,73,4.2
0.127000,759.1,139.0,1493.5,330.7,2351.3,115.9,751.5,1524.7,2358.6,143.9,73.1,4.2
0.129000,765.6,123.4,1531.7,312.3,2354.9,129.2,762.1,1528.4,2363.2,144,73,4.7
0.131000,769.5,115.5,1563.7,281.5,2359.0,146.6,774.8,1532.6,2368.3,144.1,72.8,5.3
0.133000,771.4,112.9,1574.8,244.9,2361.6,164.5,789.6,1537.1,2373.9,144.1,72.4,5.9
0.135000,776.3,120.1,1558.7,211.4,2363.4,173.6,806.6,1542.1,2380,144.2,71.9,6
0.137000,794.3,139.0,1531.9,183.0,2371.7,175.8,825.5,1547.5,2386.6,144.2,71.4,5.6
0.139000,831.7,154.1,1519.0,159.5,2385.4,173.8,846.2,1553.3,2393.5,144.3,70.7,4.9
0.141000,870.5,150.6,1525.7,143.7,2396.4,171.6,868.2,1559.4,2400.9,144.4,70.1,4.1
0.143000,900.0,139.0,1542.7,133.0,2402.5,173.4,891.3,1565.6,2408.4,144.4,69.5,3.2
0.145000,922.1,133.7,1559.1,130.5,2405.4,179.5,914.9,1572,2416.1,144.5,68.9,2.6
0.147000,948.4,143.9,1566.0,141.7,2410.1,191.7,938.6,1578.3,2423.8,144.5,68.3,5.3
0.149000,986.0,163.4,1560.7,160.3,2420.4,208.6,961.7,1584.5,2431.3,144.6,67.7,11.4
0.151000,1016.6,167.6,1553.0,165.6,2434.6,223.7,983.9,1590.4,2438.4,144.6,67.2,15.9
0.153000,1029.7,159.5,1551.1,157.2,2449.0,240.2,1004.4,1595.8,2445,144.7,66.7,14
0.155000,1032.5,153.7,1560.4,150.3,2454.0,260.3,1022.8,1600.7,2450.9,144.7,66.3,1
0.157000,1035.3,160.4,1583.7,158.1,2445.2,284.1,1038.5,1604.9,2455.9,144.7,65.7,-32.9
0.159000,1042.0,187.5,1622.6,184.2,2439.9,311.0,1051.3,1608.3,2460,144.8,65.1,-84.4
0.161000,1051.2,242.1,1667.7,211.8,2465.6,328.3,1060.7,1610.7,2463,144.8,64.5,-139
0.163000,1056.0,347.5,1686.9,218.9,2500.3,305.1,1066.4,1612.2,2464.9,144.8,63.9,-182.4
0.165000,1036.8,456.2,1662.0,188.6,2503.2,261.3,1068.3,1612.8,2465.5,144.9,63.5,-200
