time,f1,b1,f2,b2,f3,b3,f1p,f2p,f3p,f0,intensity,harmonicity
0.025000,793.5,164.9,1556.6,82.4,2763.4,92.4,763.2,1545,2798,154.1,70.1,12.5
0.027000,794.3,167.5,1551.8,78.0,2767.7,95.9,766.5,1548.6,2798.7,154,69.6,12
0.029000,790.3,169.4,1547.1,76.2,2779.7,107.0,771.8,1554.5,2799.7,153.9,69.1,11.4
0.031000,784.3,172.4,1545.1,76.8,2798.8,122.5,779.1,1562.5,2801,153.8,68.5,10.8
0.033000,778.8,180.2,1548.5,80.4,2819.1,134.6,788.1,1572.2,2802.7,153.7,67.9,10.1
0.035000,773.2,196.1,1557.1,90.3,2833.6,144.2,798.9,1583.4,2804.5,153.6,67.2,9.3
0.037000,768.6,216.6,1573.4,107.4,2838.2,157.1,811,1595.6,2806.4,153.5,66.5,8.5
0.039000,771.0,239.4,1607.2,124.6,2831.4,171.7,824.3,1608.5,2808.4,153.4,65.7,7.6
0.041000,786.3,262.4,1653.5,116.8,2818.2,167.9,838.6,1621.5,2810.3,153.3,64.9,6.6
0.043000,815.5,296.2,1683.2,87.9,2812.8,147.6,853.5,1634.4,2812,153.2,64.2,5.8
0.045000,863.3,339.5,1689.9,64.4,2819.8,137.1,869,1646.6,2813.7,153.1,63.5,5.1
0.047000,918.7,358.7,1688.3,50.8,2831.6,138.0,884.7,1657.8,2815.2,153,62.8,4.6
0.049000,966.0,345.0,1685.4,42.8,2837.8,136.6,900.4,1667.7,2816.5,152.9,62.1,4.3
0.051000,989.1,315.6,1681.1,39.3,2830.4,127.4,916,1675.9,2817.8,152.8,61.5,4.1
0.053000,993.8,291.4,1673.3,38.9,2814.1,121.3,931.4,1682.4,2819,152.7,61,3.9
0.055000,988.3,279.9,1661.3,39.3,2799.8,131.1,946.4,1686.8,2820.3,152.7,60.5,3.7
0.057000,974.2,266.8,1651.7,38.2,2792.2,157.6,961,1689.3,2821.9,152.6,60.1,6.6
0.059000,958.1,237.8,1649.9,36.4,2788.5,195.7,975.1,1689.9,2823.8,152.5,59.7,12.7
0.061000,950.4,201.9,1657.9,35.9,2791.4,219.2,988.7,1688.7,2826.3,0,59.4,17.1
0.063000,953.6,167.4,1671.7,36.5,2808.2,199.1,1001.8,1685.9,2829.5,0,58.9,15.2
0.065000,966.3,142.3,1683.6,38.4,2831.7,156.9,1014.3,1681.9,2833.5,0,58.5,2.1
0.067000,985.7,133.4,1685.7,42.0,2849.2,126.2,1026.5,1676.8,2838.6,0,58.1,-28.8
0.069000,1010.7,137.1,1679.0,47.1,2858.4,110.6,1038.2,1671.1,2844.8,0,57.6,-74
0.071000,1036.7,149.0,1671.7,54.0,2861.0,111.0,1049.5,1665.2,2852.1,0,57,-124.1
0.073000,1060.4,167.6,1667.7,65.0,2863.2,127.7,1060.5,1659.5,2860.7,0,56.6,-169.3
0.075000,1081.0,193.5,1664.3,79.7,2870.6,155.6,1071.1,1654.4,2870.4,0,56.2,-200
0.077000,1101.3,226.0,1659.9,94.2,2885.9,183.2,1081.4,1650.1,2881.2,0,55.5,-212.9
0.079000,1123.1,258.2,1658.2,104.6,2910.4,205.6,1091.2,1647.1,2893,0,55.1,-214.5
0.081000,1133.1,273.9,1663.5,106.2,2939.3,218.5,1100.5,1645.5,2905.5,0,54.9,-209.7
0.083000,1124.2,284.2,1670.3,104.7,2962.7,218.9,1109.3,1645.6,2918.3,0,54.6,-203.2
0.085000,1108.5,307.7,1671.1,109.3,2970.8,210.0,1117.4,1647.4,2931.3,0,54.3,-200
0.087000,1103.2,350.7,1664.6,122.6,2962.5,202.2,1124.6,1650.9,2943.8,0,54.1,-200
0.089000,1120.1,406.0,1652.9,149.8,2945.2,200.7,1130.7,1656.1,2955.6,0,53.9,-200
0.091000,1154.7,412.6,1641.9,202.2,2933.6,206.8,1135.7,1662.7,2966.1,0,53.8,-200
0.093000,1177.0,337.5,1638.9,279.6,2934.5,220.6,1139.3,1670.4,2974.8,0,53.8,-200
0.095000,1172.0,246.7,1643.4,325.5,2941.6,234.2,1141.3,1679.1,2981.2,0,53.5,-200
0.097000,1155.3,186.4,1655.8,287.6,2946.7,229.7,1141.5,1688.2,2984.8,0,53.4,-200
0.099000,1136.6,155.2,1679.1,201.4,2950.5,199.1,1139.8,1697.4,2985.3,0,53.2,-200
0.101000,1119.5,156.5,1700.6,137.4,2954.6,162.1,1136,1706.2,2982.1,0,53,-200
0.103000,1105.2,181.0,1716.5,109.7,2958.2,139.5,1130,1714.1,2975.1,0,52.7,-200
0.105000,1093.7,209.7,1729.4,105.8,2958.4,133.8,1121.9,1720.7,2963.9,0,52.5,-200
0.107000,1083.7,232.3,1739.6,118.0,2953.5,139.3,1111.4,1725.6,2948.5,0,52.2,-200
0.109000,1076.9,259.3,1746.3,146.9,2943.9,150.5,1098.8,1728.6,2928.7,0,51.9,-200
0.111000,1076.7,296.3,1747.5,188.4,2933.1,163.0,1084,1729.2,2904.8,0,51.6,-200
0.113000,1075.3,335.6,1744.7,224.6,2922.7,179.6,1067.3,1727.4,2876.9,0,51.2,-200
0.115000,1054.7,361.5,1740.6,233.9,2909.5,206.7,1048.8,1723,2845.3,0,50.8,-200
0.117000,1019.5,365.8,1735.0,225.8,2887.2,246.9,1028.8,1716.1,2810.6,0,50.3,-200
0.119000,989.3,357.2,1724.6,226.7,2848.0,305.5,1007.7,1706.8,2773.2,0,49.8,-200
0.121000,971.0,345.4,1707.0,250.0,2790.9,386.3,985.7,1695.4,2733.9,0,49.3,-200
0.123000,956.3,332.5,1679.9,288.5,2702.7,475.5,963.3,1682.1,2693.4,0,48.7,-200
0.125000,942.4,325.3,1641.9,317.4,2586.0,505.2,940.9,1667.4,2652.5,0,48.2,-200
0.127000,936.4,336.4,1607.4,303.8,2495.8,468.4,918.9,1651.7,2612,0,47.7,-200
0.129000,944.4,382.1,1589.9,259.6,2448.1,446.8,897.8,1635.6,2572.8,0,47.3,-200
0.131000,954.2,458.2,1587.5,218.7,2432.3,478.2,877.9,1619.7,2535.8,0,47.1,-200
0.133000,935.4,508.9,1594.1,181.8,2431.9,540.0,859.7,1604.5,2501.8,0,47.1,-200
0.135000,887.0,485.4,1604.3,147.9,2441.1,598.2,843.6,1590.5,2471.5,0,47,-200
0.137000,838.1,424.5,1609.3,124.3,2462.6,642.3,830,1578.3,2445.7,0,46.9,-200
0.139000,797.1,359.8,1603.6,112.7,2496.0,683.7,819,1568.3,2425,0,46.8,-200
0.141000,767.4,300.6,1585.7,116.2,2513.6,709.1,811,1560.9,2409.8,0,46.6,-200
0.143000,748.2,250.0,1558.8,138.2,2470.2,678.5,806.1,1556.4,2400.5,0,46.2,-200
0.145000,742.0,222.7,1530.3,183.1,2392.9,577.7,804.5,1554.8,2397.4,0,45.8,-200
