time,f1,b1,f2,b2,f3,b3,f1p,f2p,f3p,f0,intensity,harmonicity
0.025000,781.7,95.0,1565.0,147.7,2545.7,305.7,792,1537.5,2567.1,151.3,72.4,11.2
0.027000,789.7,97.1,1562.1,139.0,2540.0,286.0,792.9,1537.4,2567.3,151.4,72.5,12.5
0.029000,798.1,100.2,1560.1,132.0,2528.9,271.4,794.4,1537.2,2567.6,151.4,72.7,13.4
0.031000,805.0,102.2,1556.8,128.5,2519.9,271.7,796.4,1537,2568,151.5,72.8,13.9
0.033000,810.4,101.9,1551.7,126.0,2516.0,285.1,799,1536.7,2568.5,151.5,73,14.1
0.035000,814.1,100.9,1544.3,123.7,2519.3,311.3,802,1536.3,2569.2,151.5,73.1,14.2
0.037000,817.2,101.0,1534.4,123.2,2531.5,356.5,805.5,1535.8,2570,151.6,73.2,13.8
0.039000,820.2,100.3,1523.1,122.4,2563.6,421.9,809.3,1535.3,2570.9,151.6,73.3,13.1
0.041000,822.5,98.7,1515.4,118.3,2585.2,1406.3,813.6,1534.8,2572,151.6,73.3,12.2
0.043000,824.7,98.3,1511.4,111.5,2582.5,1463.2,818.1,1534.2,2573.3,151.7,73.4,11.5
0.045000,827.1,98.6,1508.9,105.9,2623.3,390.2,822.8,1533.5,2574.6,151.7,73.4,11.3
0.047000,829.8,97.9,1507.9,102.9,2628.0,363.6,827.6,1532.8,2576.1,151.7,73.5,11.8
0.049000,833.3,96.1,1508.8,101.5,2639.7,346.0,832.6,1532.1,2577.8,151.7,73.6,12.7
0.051000,837.4,94.1,1510.6,101.5,2651.8,338.2,837.5,1531.4,2579.6,151.7,73.6,13.9
0.053000,841.9,92.1,1513.0,102.3,2653.3,332.3,842.4,1530.7,2581.6,151.7,73.7,15.1
0.055000,846.3,90.9,1516.0,103.9,2638.4,322.2,847.2,1529.9,2583.8,151.6,73.8,16.1
0.057000,849.8,90.4,1518.7,106.2,2618.5,308.1,851.8,1529.2,2586.1,151.6,73.8,17.2
0.059000,853.1,89.9,1520.3,108.0,2603.5,293.5,856.2,1528.4,2588.5,151.5,73.8,18.6
0.061000,856.5,89.6,1520.7,108.4,2597.4,283.5,860.3,1527.7,2591.1,151.4,73.8,19.8
0.063000,860.7,91.0,1520.3,109.5,2596.2,281.3,864,1526.9,2593.8,151.4,73.7,20.4
0.065000,864.5,94.2,1519.9,113.1,2599.6,289.7,867.4,1526.2,2596.6,151.2,73.5,20
0.067000,866.5,98.7,1520.7,118.7,2608.9,299.5,870.3,1525.6,2599.5,151.1,73.4,17.9
0.069000,866.9,106.2,1524.3,125.0,2618.0,296.6,872.8,1524.9,2602.6,151,73.3,14.4
0.071000,866.9,114.8,1529.6,129.0,2618.7,281.8,874.9,1524.3,2605.7,150.8,73.1,10.4
0.073000,867.0,121.7,1535.4,129.7,2612.5,262.0,876.5,1523.8,2608.9,150.7,73,7.2
0.075000,867.5,127.0,1540.5,128.7,2603.6,247.4,877.6,1523.2,2612.1,150.5,72.9,5.6
0.077000,866.9,131.3,1543.5,127.1,2595.3,244.4,878.3,1522.8,2615.4,150.3,72.8,6.4
0.079000,864.5,132.3,1543.1,123.3,2589.4,249.9,878.5,1522.4,2618.6,150.1,72.8,8.8
0.081000,860.7,129.1,1539.4,118.4,2587.8,261.4,878.4,1522,2621.9,149.9,72.8,11.9
0.083000,855.8,125.1,1534.0,114.6,2588.2,283.5,877.8,1521.7,2625.1,149.7,72.8,14.8
0.085000,852.1,122.8,1530.4,112.9,2588.3,311.6,877,1521.5,2628.2,149.5,72.8,16.5
0.087000,851.2,123.0,1530.1,113.9,2590.1,334.9,875.9,1521.3,2631.2,149.3,72.8,16.9
0.089000,852.9,126.6,1532.4,118.8,2597.0,356.2,874.5,1521.2,2634.1,149.1,72.8,16.5
0.091000,855.8,130.3,1535.6,124.8,2607.9,366.7,873,1521.1,2636.8,148.9,72.8,15.7
0.093000,858.6,130.7,1538.8,128.2,2617.5,349.8,871.5,1521.2,2639.4,148.7,72.7,14.7
0.095000,860.3,128.8,1540.6,129.2,2622.7,314.5,869.9,1521.3,2641.8,148.5,72.7,14
0.097000,860.4,127.1,1540.2,130.2,2626.8,287.1,868.4,1521.5,2643.9,148.3,72.6,13.2
0.099000,860.7,124.9,1537.9,130.2,2629.6,274.5,867,1521.7,2645.9,148.2,72.5,12.3
0.101000,863.7,124.0,1535.5,129.0,2630.4,272.9,865.8,1522.1,2647.5,148,72.3,11.4
0.103000,870.3,128.5,1533.7,129.2,2631.9,279.2,865,1522.5,2648.9,147.9,72.2,10.7
0.105000,878.9,137.6,1532.0,131.0,2636.7,291.8,864.5,1523,2650,147.8,72,10.3
0.107000,886.8,145.1,1529.0,131.9,2644.2,300.5,864.5,1523.7,2650.9,147.7,71.9,10.4
0.109000,894.6,151.9,1524.1,132.0,2652.6,301.5,864.9,1524.4,2651.4,147.6,71.8,10.8
0.111000,902.2,159.0,1520.0,130.9,2656.9,303.4,866,1525.2,2651.6,147.6,71.7,11.5
0.113000,909.5,163.1,1518.3,128.0,2662.2,307.4,867.7,1526.1,2651.6,147.5,71.6,12
0.115000,916.7,162.2,1519.2,125.5,2677.7,297.4,870,1527.2,2651.3,147.5,71.4,12.2
0.117000,924.1,159.4,1519.8,126.5,2698.1,274.1,873.1,1528.4,2650.6,147.6,71.2,12.1
0.119000,928.8,156.2,1516.7,131.2,2709.7,252.2,876.9,1529.7,2649.8,147.6,71,11.7
0.121000,928.1,153.2,1509.3,134.9,2703.6,235.9,881.4,1531.1,2648.7,147.7,70.7,11.3
0.123000,924.3,150.9,1498.1,134.4,2685.8,208.8,886.8,1532.7,2647.3,147.8,70.4,10.8
0.125000,920.6,149.5,1485.8,131.4,2670.8,173.5,892.9,1534.4,2645.8,147.9,70.1,10.6
0.127000,918.1,147.5,1477.3,130.0,2664.2,148.9,899.8,1536.3,2644.1,148.1,69.7,10.7
0.129000,918.0,144.8,1475.1,133.6,2662.0,142.1,907.5,1538.3,2642.3,148.3,69.4,11
0.131000,920.9,142.1,1479.4,142.1,2660.7,155.8,915.9,1540.5,2640.4,148.5,69.1,11.4
0.133000,925.6,138.9,1490.5,151.4,2660.2,190.8,925,1542.8,2638.4,148.7,68.7,11.5
0.135000,929.7,136.9,1509.8,154.4,2662.7,230.4,934.7,1545.4,2636.4,148.9,68.3,11.1
0.137000,932.7,138.2,1533.2,150.1,2665.0,246.8,945.1,1548.1,2634.5,149.2,67.8,10
0.139000,933.9,143.4,1555.6,142.0,2660.0,239.5,955.9,1551,2632.6,149.5,67.3,8.3
0.141000,931.4,153.3,1568.6,135.7,2650.1,225.4,967.2,1554.1,2630.8,149.8,66.6,6.4
0.143000,925.1,171.2,1574.1,129.1,2636.2,213.4,979,1557.3,2629.3,150.1,65.8,4.7
0.145000,919.3,199.8,1577.2,119.3,2614.9,197.9,991,1560.7,2627.9,150.4,64.9,3.4
0.147000,921.5,238.3,1583.9,112.4,2596.2,168.7,1003.2,1564.3,2626.7,150.7,64.1,6
0.149000,944.5,257.0,1598.0,106.1,2583.6,133.1,1015.6,1568.1,2625.9,151.1,63.3,12.2
0.151000,977.3,232.2,1614.1,95.4,2576.2,106.1,1028,1572,2625.4,151.4,62.7,16.9
0.153000,1006.1,192.6,1625.4,84.0,2572.0,92.6,1040.3,1576.1,2625.2,151.7,62.2,15.3
0.155000,1026.9,157.2,1631.0,80.0,2571.1,95.4,1052.5,1580.4,2625.5,152.1,61.8,2.3
0.157000,1039.2,133.9,1634.8,85.9,2573.6,113.2,1064.5,1584.8,2626.2,152.4,61.4,-28.5
0.159000,1047.8,124.0,1636.6,102.7,2581.1,140.9,1076.2,1589.2,2627.4,152.7,61.1,-73.8
0.161000,1059.6,125.4,1631.5,122.9,2592.3,153.0,1087.4,1593.8,2629,153,60.7,-124
0.163000,1083.3,130.6,1621.4,133.4,2602.5,138.2,1098.2,1598.5,2631.1,153.3,60.4,-169.3
0.165000,1117.7,126.5,1623.9,122.7,2605.5,119.2,1108.5,1603.3,2633.8,153.5,60.2,-200
0.167000,1148.1,115.5,1637.0,103.0,2603.5,111.5,1118.2,1608,2636.9,0,60.2,-216.2
0.169000,1167.7,114.2,1644.1,87.8,2604.3,114.6,1127.2,1612.8,2640.6,0,60.3,-224.3
0.171000,1176.8,132.6,1638.8,84.4,2615.3,128.9,1135.4,1617.6,2644.8,0,60.6,-224.3
0.173000,1182.6,177.8,1624.6,90.6,2643.1,153.0,1143,1622.4,2649.5,0,60.9,-216.2
0.175000,1195.6,243.0,1610.5,101.8,2683.5,166.8,1149.8,1627.1,2654.7,0,61.1,-200
0.177000,1230.6,281.5,1610.1,113.3,2713.6,167.8,1155.8,1631.7,2660.3,0,61.2,-169.1
0.179000,1257.1,245.2,1627.7,115.4,2726.8,173.5,1161,1636.2,2666.4,0,61.2,-123.6
0.181000,1234.3,187.6,1645.5,102.4,2727.9,182.9,1165.4,1640.6,2672.8,0,61.1,-73.2
0.183000,1195.9,136.2,1657.5,92.2,2729.6,185.9,1169,1644.7,2679.7,0,60.9,-27.7
0.185000,1170.4,104.0,1660.5,93.1,2742.5,182.2,1171.9,1648.7,2686.8,0,60.8,3
0.187000,1157.4,86.2,1651.6,98.3,2762.5,186.2,1174,1652.4,2694.3,0,60.7,18.9
0.189000,1150.1,69.4,1636.6,92.2,2777.2,222.4,1175.4,1655.9,2702,0,60.7,26.4
0.191000,1146.4,55.6,1627.1,77.2,2763.4,309.7,1176.2,1659,2709.9,0,60.6,25.7
0.193000,1143.6,48.4,1621.8,64.8,2706.5,397.6,1176.4,1661.9,2717.9,0,60.4,17.1
0.195000,1141.3,48.9,1617.6,56.7,2660.7,437.8,1176.1,1664.3,2726,0,60,0.7
0.197000,1140.3,56.8,1615.1,49.2,2660.6,427.1,1175.2,1666.5,2734.1,0,59.4,-30
0.199000,1141.6,77.4,1616.1,42.2,2689.4,365.8,1174,1668.2,2742.2,0,58.7,-75
0.201000,1144.8,117.1,1619.6,41.3,2711.4,315.5,1172.4,1669.5,2750.2,0,57.8,-124.7
0.203000,1151.1,159.4,1622.5,50.0,2730.3,291.1,1170.5,1670.4,2758.1,0,57,-169.5
0.205000,1164.4,163.8,1624.2,67.4,2749.4,270.2,1168.5,1670.8,2765.7,0,56.4,-200
0.207000,1181.6,151.3,1628.6,83.5,2765.7,249.3,1166.3,1670.8,2773.2,0,55.9,-212.8
0.209000,1197.6,138.4,1637.6,91.9,2784.8,232.1,1164.1,1670.3,2780.4,0,55.6,-214.4
0.211000,1207.3,132.9,1647.2,94.2,2805.6,217.5,1161.9,1669.4,2787.2,0,55.3,-209.6
0.213000,1208.2,134.3,1658.4,93.7,2825.9,204.2,1159.8,1668,2793.7,0,55,-203.2
0.215000,1195.8,133.1,1673.2,86.9,2839.8,197.2,1157.8,1666.2,2799.7,0,54.7,-200
0.217000,1174.2,120.2,1687.1,73.3,2845.0,194.6,1156.1,1664,2805.4,0,54.3,-200
0.219000,1154.9,102.2,1692.1,60.3,2844.1,192.4,1154.5,1661.3,2810.6,0,54,-200
0.221000,1148.2,93.3,1686.0,54.8,2840.6,199.0,1153.3,1658.2,2815.3,0,53.6,-200
0.223000,1152.0,102.0,1673.0,58.8,2834.6,226.1,1152.4,1654.7,2819.6,0,53.2,-200
0.225000,1160.8,137.3,1658.9,76.7,2825.8,289.4,1151.8,1650.8,2823.3,0,52.9,-200
0.227000,1168.1,192.3,1648.8,108.2,2811.5,403.0,1151.7,1646.6,2826.6,0,52.5,-200
0.229000,1169.2,242.1,1645.3,144.3,2802.6,541.6,1151.9,1642.1,2829.3,0,52.2,-200
0.231000,1161.5,249.2,1651.8,154.2,2836.0,533.3,1152.5,1637.4,2831.6,0,52,-200
0.233000,1143.5,219.8,1661.0,131.5,2869.5,398.0,1153.5,1632.4,2833.5,0,51.9,-200
0.235000,1123.9,184.3,1669.9,105.9,2875.0,309.6,1154.8,1627.2,2834.9,0,51.9,-200
0.237000,1110.7,160.0,1681.3,89.8,2862.9,290.2,1156.5,1621.9,2835.8,0,52,-200
0.239000,1102.2,147.4,1690.7,78.7,2837.7,314.8,1158.6,1616.4,2836.4,0,52.1,-200
0.241000,1099.4,146.2,1691.1,71.9,2802.9,355.7,1160.9,1610.9,2836.6,0,52,-200
0.243000,1103.3,153.5,1682.1,67.8,2765.5,362.8,1163.5,1605.4,2836.5,0,51.8,-200
0.245000,1115.4,171.4,1666.1,67.3,2754.0,296.1,1166.3,1600,2836.1,0,51.5,-200
0.247000,1135.1,209.3,1646.6,74.9,2759.2,227.3,1169.3,1594.6,2835.5,0,51,-200
0.249000,1169.2,285.9,1620.3,96.9,2763.1,203.9,1172.4,1589.3,2834.7,0,50.5,-200
0.251000,1209.8,379.7,1585.9,123.2,2762.7,227.6,1175.5,1584.2,2833.7,0,50.1,-200
0.253000,1211.8,446.3,1549.0,125.5,2755.8,292.9,1178.6,1579.3,2832.6,0,49.7,-200
0.255000,1167.7,454.7,1527.0,115.0,2747.6,393.8,1181.7,1574.7,2831.4,0,49.4,-200
0.257000,1134.0,444.1,1515.8,120.8,2757.4,507.7,1184.7,1570.4,2830.2,0,49.1,-200
0.259000,1127.2,441.4,1510.6,147.1,2807.2,586.1,1187.6,1566.5,2829,0,48.8,-200
0.261000,1143.7,445.2,1512.8,181.2,2868.7,577.3,1190.2,1562.9,2827.8,0,48.5,-200
0.263000,1179.9,441.5,1527.0,210.8,2908.9,531.8,1192.6,1559.7,2826.8,0,48.1,-200
0.265000,1224.4,425.2,1553.9,230.5,2942.6,495.5,1194.7,1557,2825.8,0,47.7,-200
0.267000,1259.6,421.5,1581.7,243.8,2983.4,486.2,1196.4,1554.7,2825,0,47.1,-200
0.269000,1289.4,466.8,1592.8,265.8,3024.9,553.6,1197.8,1552.9,2824.3,0,46.5,-200
0.271000,1342.0,607.2,1555.3,310.9,3037.5,831.2,1198.9,1551.6,2823.8,0,45.7,-200
0.273000,1353.9,1116.3,1481.7,240.0,2797.1,1327.6,1199.5,1550.8,2823.5,0,44.8,-200
0.275000,1021.9,1249.2,1462.2,179.3,2496.4,1012.6,1199.7,1550.6,2823.4,0,43.9,-200
