time,f1,b1,f2,b2,f3,b3,f1p,f2p,f3p,f0,intensity,harmonicity
0.026000,658.9,261.5,1527.5,83.6,2629.0,97.7,678,1512.3,2605,164.6,84.7,7.5
0.028000,666.5,267.7,1526.2,86.7,2627.5,101.4,677.9,1512.3,2605.1,164.5,84.8,9.3
0.030000,672.4,272.6,1524.6,89.6,2624.5,102.0,677.9,1512.2,2605.3,164.4,84.9,11.3
0.032000,675.9,267.2,1521.3,89.4,2619.6,98.4,677.9,1512.1,2605.5,164.3,85,13.1
0.034000,677.4,250.3,1516.3,85.3,2611.6,91.4,677.9,1512,2605.7,164.2,85.1,14.5
0.036000,678.2,233.8,1511.1,80.1,2603.2,84.2,678.1,1511.8,2605.8,164.1,85.1,15.1
0.038000,680.1,226.1,1506.6,76.2,2596.5,77.5,678.6,1511.5,2605.8,164,85.1,14.8
0.040000,682.8,232.1,1503.3,74.7,2593.2,72.5,679.3,1511.1,2605.7,163.8,85.1,14.1
0.042000,685.9,251.2,1500.4,75.0,2591.7,69.3,680.3,1510.6,2605.3,163.7,85,13.3
0.044000,688.7,281.8,1497.8,76.4,2591.3,68.2,681.7,1509.9,2604.7,163.6,84.9,12.8
0.046000,690.9,319.5,1495.7,79.1,2591.5,69.8,683.6,1509.1,2603.9,163.5,84.7,12.9
0.048000,693.3,364.5,1494.3,82.5,2591.5,72.4,685.9,1508,2602.7,163.4,84.5,13.5
0.050000,695.9,405.4,1493.5,84.7,2590.1,72.4,688.8,1506.7,2601.1,163.2,84.2,14.4
0.052000,698.0,442.9,1492.7,86.0,2586.6,68.9,692.2,1505.2,2599.3,163.1,83.9,15.3
0.054000,699.5,487.1,1492.2,87.7,2582.5,64.1,696,1503.5,2597.2,163,83.6,16
0.056000,700.7,535.4,1492.6,90.3,2581.4,60.7,700.3,1501.5,2594.8,162.9,83.3,16.2
0.058000,703.9,578.3,1494.8,95.3,2584.2,59.7,704.9,1499.3,2592.2,162.9,82.9,16
0.060000,710.6,597.5,1497.8,102.9,2588.7,60.7,709.8,1496.9,2589.4,162.8,82.6,15.6
0.062000,719.5,587.9,1500.2,111.4,2591.1,61.5,714.9,1494.2,2586.7,162.7,82.4,15.2
0.064000,727.3,563.8,1500.6,119.2,2588.6,61.3,720.1,1491.4,2583.9,162.6,82.1,14.7
0.066000,732.7,542.2,1498.8,124.6,2582.1,61.0,725.2,1488.4,2581.4,162.6,81.9,14.4
0.068000,737.1,508.7,1495.7,124.5,2575.4,60.3,730.1,1485.3,2579.1,162.5,81.7,14.2
0.070000,740.1,453.7,1494.4,117.6,2573.2,60.0,734.6,1482.1,2577.2,162.5,81.5,13.9
0.072000,741.8,388.5,1495.5,108.2,2575.7,62.2,738.6,1478.9,2575.9,162.4,81.3,13.7
0.074000,743.1,333.7,1496.6,101.3,2580.4,67.8,742,1475.6,2575.1,162.4,81.1,13.4
0.076000,743.9,304.5,1494.2,101.0,2582.0,74.8,744.6,1472.5,2575.1,162.4,80.8,12.9
0.078000,743.6,296.9,1487.5,108.5,2578.7,80.2,746.3,1469.4,2575.9,162.4,80.6,12.4
0.080000,742.3,302.9,1478.1,120.9,2576.1,81.8,747.1,1466.4,2577.5,162.4,80.4,11.7
0.082000,738.4,312.9,1466.8,131.9,2579.4,82.2,747,1463.7,2580.1,162.4,80.2,11.1
0.084000,729.2,316.9,1453.6,133.8,2587.8,84.1,745.8,1461.2,2583.6,162.4,80,10.5
0.086000,717.7,304.1,1442.5,124.6,2598.8,87.1,743.7,1459,2588,162.4,79.9,10.1
0.088000,708.9,279.7,1435.1,114.4,2615.9,89.5,740.6,1457.2,2593.3,162.4,79.9,9.9
0.090000,706.0,260.1,1431.1,113.0,2638.6,89.8,736.7,1455.7,2599.5,162.4,79.9,9.9
0.092000,708.1,247.0,1429.7,119.1,2658.4,86.1,732.1,1454.6,2606.5,162.3,79.9,9.7
0.094000,713.7,235.3,1431.5,127.8,2665.0,83.3,726.9,1453.9,2614.2,162.3,79.9,9.5
0.096000,720.3,220.4,1434.7,134.9,2656.0,88.3,721.4,1453.7,2622.4,162.3,79.8,8.9
0.098000,726.5,199.9,1438.7,140.1,2634.0,98.8,715.6,1453.9,2631,162.2,79.7,8
0.100000,730.2,182.2,1444.6,143.1,2611.4,105.1,709.9,1454.6,2640,162.1,79.4,6.9
0.102000,730.0,175.0,1453.6,147.2,2602.6,107.5,704.5,1455.7,2649.1,162,79,5.9
0.104000,725.4,187.3,1464.2,160.3,2612.7,113.0,699.7,1457.3,2658.2,161.9,78.6,5.1
0.106000,720.1,223.5,1472.3,192.8,2632.2,125.8,695.6,1459.3,2667.2,161.7,78.1,4.8
0.108000,720.8,282.0,1477.5,254.8,2651.5,150.4,692.5,1461.7,2675.9,161.5,77.7,4.9
0.110000,726.5,331.5,1484.4,292.7,2664.5,183.5,690.7,1464.6,2684.3,161.3,77.4,5.3
0.112000,724.4,352.6,1496.4,240.8,2670.4,216.2,690.3,1467.8,2692.1,161,77.1,5.8
0.114000,714.2,369.0,1505.8,164.4,2668.7,243.2,691.4,1471.3,2699.5,160.7,76.9,6.3
0.116000,700.5,388.9,1508.8,120.7,2664.2,261.7,694.4,1475.2,2706.2,160.4,76.7,6.7
0.118000,689.4,390.9,1506.3,101.7,2665.0,278.7,699.1,1479.4,2712.4,160,76.4,7.1
0.120000,689.9,369.0,1497.4,103.2,2679.3,296.8,705.7,1483.8,2718,159.6,76.1,7.7
0.122000,700.6,345.2,1480.7,123.5,2708.1,304.9,714.3,1488.3,2723,159.2,75.7,8.1
0.124000,716.5,344.9,1459.6,166.6,2741.0,289.1,724.7,1493.1,2727.6,158.7,75.2,8.4
0.126000,736.4,382.6,1450.3,229.6,2771.0,265.3,736.9,1498,2731.8,158.2,74.7,8.4
0.128000,753.5,425.8,1463.2,272.5,2793.2,238.5,750.8,1503,2735.8,157.7,74.2,8.2
0.130000,749.0,419.6,1482.9,235.6,2793.1,213.6,766.2,1508.1,2739.6,157.1,73.6,7.8
0.132000,734.4,402.1,1496.7,176.2,2787.8,182.0,783.1,1513.2,2743.4,156.5,73,7.3
0.134000,721.3,427.0,1504.0,137.2,2787.9,155.0,801,1518.3,2747.5,156,72.4,6.8
0.136000,726.6,498.5,1511.1,121.9,2787.0,155.5,820,1523.5,2751.8,155.4,71.8,6.3
0.138000,780.7,560.0,1530.6,120.9,2785.1,192.8,839.5,1528.5,2756.7,154.8,71.3,5.8
0.140000,864.6,537.9,1559.9,121.7,2792.4,241.8,859.6,1533.6,2762.1,154.2,70.9,5.1
0.142000,928.0,448.5,1584.6,113.1,2803.8,265.0,879.7,1538.5,2768.3,153.6,70.5,4.5
0.144000,960.3,347.5,1594.5,102.4,2808.2,266.9,899.9,1543.3,2775.3,153.1,70.1,3.9
0.146000,976.7,275.6,1588.3,100.3,2803.3,263.0,919.7,1548.1,2783.2,152.5,69.7,4.2
0.148000,988.3,232.9,1568.4,106.0,2787.9,244.5,938.9,1552.6,2792,152,69.2,9
0.150000,995.9,218.0,1543.6,113.3,2773.6,205.5,957.5,1557.1,2801.8,151.5,68.6,14.6
0.152000,1002.1,217.7,1526.0,119.0,2770.9,167.0,975.1,1561.4,2812.4,151,68.1,16.3
0.154000,1008.2,211.6,1520.7,124.4,2775.8,143.0,991.7,1565.5,2823.9,150.5,67.5,9.2
0.156000,1014.3,191.3,1523.6,131.4,2782.0,133.6,1007.1,1569.4,2836,0,67,-12.1
0.158000,1023.6,163.5,1536.7,140.4,2789.4,141.6,1021.3,1573.1,2848.8,0,66.6,-51.1
0.160000,1033.9,139.7,1564.2,145.6,2801.7,181.7,1034.3,1576.6,2861.9,0,66.3,-99.7
0.162000,1040.6,125.9,1596.8,143.3,2825.9,274.1,1045.9,1579.9,2875.1,0,65.9,-148.3
0.164000,1042.1,122.7,1619.6,137.7,2863.0,406.5,1056.2,1583,2888.4,0,65.5,-187.2
0.166000,1041.4,127.4,1626.2,138.0,2895.0,446.7,1065.2,1585.8,2901.4,0,65,-208.1
0.168000,1043.3,139.0,1620.4,146.6,2913.8,352.0,1073,1588.3,2913.8,0,64.4,-214.8
0.170000,1050.7,155.7,1608.8,153.9,2922.9,246.3,1079.7,1590.6,2925.5,0,63.6,-212.6
0.172000,1062.4,175.7,1598.3,150.0,2929.4,178.2,1085.2,1592.6,2936.2,0,62.8,-206.3
0.174000,1077.7,202.0,1591.6,141.9,2939.3,141.5,1089.8,1594.3,2945.7,0,61.7,-200.9
0.176000,1094.1,236.5,1587.3,143.3,2954.4,124.9,1093.4,1595.7,2953.7,0,60.5,-200
0.178000,1108.5,281.8,1583.1,158.8,2975.7,118.3,1096.1,1596.8,2960.2,0,59.3,-200
0.180000,1112.7,324.7,1581.0,184.7,2998.8,124.0,1098,1597.6,2964.9,0,58.1,-200
0.182000,1109.7,345.7,1585.1,218.8,3021.5,153.2,1099.1,1598.1,2967.8,0,56.8,-200
0.184000,1109.3,341.3,1595.0,269.6,3040.8,220.3,1099.5,1598.2,2968.7,0,55.9,-200
