time,f1,b1,f2,b2,f3,b3,f1p,f2p,f3p,f0,intensity,harmonicity
0.026000,646.4,288.0,1788.6,176.8,2628.4,248.3,698.6,1782,2612.4,165.4,75.1,7.1
0.028000,658.2,280.9,1781.0,168.8,2604.5,217.6,699,1780.3,2611.6,164.9,74.9,7.9
0.030000,672.2,284.5,1777.1,167.8,2593.8,199.1,699.7,1777.6,2610.4,164.5,74.8,8.8
0.032000,687.8,300.2,1772.8,171.7,2596.4,199.4,700.7,1773.7,2608.7,164,74.7,9.6
0.034000,702.4,316.5,1765.7,173.8,2606.1,211.6,702,1768.9,2606.5,163.5,74.8,10.1
0.036000,714.2,316.4,1756.3,168.2,2614.2,222.6,703.7,1763,2603.8,162.9,74.9,10
0.038000,720.8,293.5,1747.7,155.9,2613.7,223.8,705.8,1756.2,2600.6,162.4,75,9.3
0.040000,724.6,259.7,1740.6,142.4,2606.5,219.7,708.3,1748.6,2596.9,161.8,75,8.3
0.042000,728.9,231.4,1735.0,133.7,2599.2,216.3,711.2,1740.1,2592.7,161.2,75.1,7.2
0.044000,734.5,214.7,1729.7,130.4,2595.7,212.7,714.7,1730.9,2588,160.6,75.1,6.4
0.046000,741.6,206.9,1723.1,130.6,2594.1,205.2,718.6,1721.1,2582.9,160,75.2,6.2
0.048000,747.9,202.3,1715.5,131.2,2589.7,194.7,723.1,1710.7,2577.4,159.4,75.2,6.4
0.050000,751.9,191.4,1706.0,128.9,2578.0,184.3,728,1699.9,2571.4,158.7,75.2,6.8
0.052000,754.0,174.9,1695.4,125.3,2558.5,177.1,733.4,1688.7,2565.2,158.1,75.2,7.4
0.054000,756.3,161.2,1684.8,124.7,2537.4,173.6,739.2,1677.3,2558.8,157.5,75.1,7.9
0.056000,759.8,154.1,1674.1,128.8,2522.7,175.0,745.4,1665.8,2552.2,156.8,75.1,8.4
0.058000,764.2,154.7,1663.9,137.3,2519.5,184.0,752,1654.2,2545.6,156.2,75,8.8
0.060000,769.1,160.3,1652.9,147.9,2523.5,199.6,758.7,1642.8,2539,155.6,75,9.2
0.062000,772.6,163.0,1640.8,152.7,2527.5,212.7,765.6,1631.6,2532.6,155,74.9,9.6
0.064000,773.9,158.5,1627.2,147.7,2526.5,217.8,772.4,1620.8,2526.4,154.4,74.7,10
0.066000,774.1,150.1,1610.8,136.6,2520.7,218.4,779.1,1610.3,2520.6,153.8,74.6,10.5
0.068000,773.8,141.0,1595.0,125.9,2514.3,217.9,785.6,1600.4,2515.3,153.2,74.5,11
0.070000,773.6,130.2,1580.4,117.6,2510.6,219.7,791.7,1591.1,2510.6,152.6,74.3,11.5
0.072000,775.2,120.8,1566.8,112.6,2511.6,231.1,797.2,1582.5,2506.5,152,74.2,12
0.074000,778.7,115.2,1555.3,109.7,2516.5,256.1,802.1,1574.6,2503.2,151.5,74,12.5
0.076000,783.7,111.7,1548.8,107.8,2520.0,291.3,806.1,1567.6,2500.7,151,73.7,12.9
0.078000,789.8,111.1,1548.5,110.4,2515.5,316.7,809.3,1561.4,2499,150.5,73.5,13.4
0.080000,796.7,113.9,1551.3,119.0,2502.3,316.0,811.4,1556,2498.2,150,73.2,13.8
0.082000,801.8,117.3,1554.5,128.8,2492.0,293.3,812.4,1551.5,2498.2,149.5,73,14.1
0.084000,804.1,120.1,1556.3,137.1,2493.5,271.9,812.3,1547.9,2499,149,72.7,14.2
0.086000,805.2,124.2,1556.4,148.5,2505.1,260.9,811,1545.2,2500.5,148.5,72.4,14.1
0.088000,805.3,126.8,1554.8,161.9,2519.1,258.0,808.5,1543.2,2502.7,148.1,72.2,13.7
0.090000,802.6,123.0,1551.5,171.1,2528.0,258.1,804.8,1542.1,2505.5,147.6,71.9,13.1
0.092000,796.6,114.6,1545.9,175.9,2526.6,263.1,800,1541.6,2508.6,147.2,71.6,12.5
0.094000,788.6,107.3,1539.3,181.1,2517.6,272.1,794.1,1541.8,2512.1,146.8,71.2,11.9
0.096000,780.4,100.6,1534.6,180.4,2509.2,277.1,787.4,1542.5,2515.7,146.3,70.8,11.6
0.098000,774.1,92.6,1535.0,164.3,2508.9,276.0,779.8,1543.8,2519.3,145.9,70.3,11.3
0.100000,769.6,83.7,1539.7,138.1,2516.8,284.1,771.6,1545.4,2522.7,145.5,69.7,11.1
0.102000,767.4,77.9,1547.3,116.6,2529.3,323.3,762.9,1547.3,2525.9,145.1,69.1,10.9
0.104000,767.3,76.6,1556.7,107.2,2536.5,400.8,754,1549.5,2528.7,144.7,68.5,10.8
0.106000,767.6,78.5,1568.0,108.5,2524.6,500.9,745.1,1551.8,2530.9,144.2,68,10.7
0.108000,766.6,80.6,1577.2,115.9,2497.0,558.3,736.3,1554.2,2532.5,143.8,67.5,10.7
0.110000,764.1,80.9,1579.9,120.8,2481.2,532.8,727.9,1556.5,2533.5,143.4,67,10.8
0.112000,760.2,80.8,1575.1,114.7,2491.8,439.7,720.1,1558.9,2533.8,143,66.5,10.8
0.114000,752.8,82.3,1566.9,100.8,2512.5,335.9,713.2,1561.1,2533.4,142.6,65.9,10.6
0.116000,741.1,86.2,1558.6,88.9,2530.7,260.0,707.3,1563.1,2532.3,142.2,65.3,10.1
0.118000,730.3,94.2,1551.3,88.5,2541.2,230.2,702.6,1565,2530.7,141.7,64.6,9.4
0.120000,720.9,115.6,1541.5,106.4,2543.6,244.5,699.2,1566.7,2528.7,141.3,63.9,8.4
0.122000,708.1,167.1,1527.4,151.4,2535.5,313.8,697.4,1568.2,2526.4,140.9,63.2,7.5
0.124000,689.7,266.1,1522.4,206.9,2522.1,464.0,697.2,1569.5,2523.9,140.5,62.6,6.6
0.126000,669.9,419.9,1552.6,196.9,2534.0,766.5,698.8,1570.6,2521.5,140.1,62.1,6.9
0.128000,654.5,602.0,1578.7,139.1,2584.6,1054.0,702.1,1571.7,2519.4,139.6,61.7,12
0.130000,639.8,749.8,1586.4,103.1,2582.5,1057.1,707.2,1572.6,2517.8,139.2,61.4,18
0.132000,643.8,720.2,1587.8,86.9,2535.3,836.9,714.1,1573.5,2517,138.8,61.1,20
0.134000,671.1,561.1,1587.4,83.0,2507.1,612.8,722.8,1574.4,2517.1,138.4,60.8,13.1
0.136000,703.6,398.7,1584.9,94.4,2497.5,458.0,733.2,1575.4,2518.4,138.1,60.4,-8.5
0.138000,729.6,308.5,1580.1,127.6,2498.1,383.6,745.1,1576.5,2521.1,137.7,60,-48.2
0.140000,752.8,284.9,1578.1,192.0,2509.7,366.7,758.5,1577.7,2525.4,137.3,59.5,-97.8
0.142000,775.0,313.2,1590.0,266.3,2538.0,387.6,773.2,1579.2,2531.3,137,58.9,-147.2
0.144000,791.2,382.2,1605.7,292.8,2576.8,394.5,789.1,1580.9,2539,136.7,58.3,-186.9
0.146000,798.3,516.1,1603.3,274.2,2595.6,361.4,805.9,1582.8,2548.5,136.4,57.8,-208.3
0.148000,799.7,706.8,1589.2,256.9,2573.8,321.8,823.5,1585,2559.8,136.1,57.3,-215
0.150000,814.5,900.9,1578.6,256.5,2532.0,290.5,841.7,1587.5,2572.8,135.8,56.9,-212.8
0.152000,866.7,978.4,1581.0,263.5,2507.8,280.3,860.2,1590.3,2587.5,135.5,56.7,-206.4
0.154000,930.7,928.6,1593.0,251.6,2519.7,294.8,878.9,1593.3,2603.6,135.3,56.7,-200.9
0.156000,970.7,827.6,1602.9,205.8,2569.4,312.9,897.5,1596.6,2621,135.1,56.8,-200
0.158000,983.7,716.8,1603.8,151.5,2633.8,303.0,915.8,1600.1,2639.4,0,57.1,-200
0.160000,993.0,598.7,1601.0,110.7,2687.8,271.8,933.6,1603.7,2658.5,0,57.3,-200
0.162000,1008.4,496.5,1600.1,89.5,2721.0,250.7,950.8,1607.4,2678,0,57.5,-200
0.164000,1019.8,424.4,1601.7,80.8,2740.2,250.7,967.1,1611.1,2697.4,0,57.5,-200
0.166000,1015.9,379.6,1604.0,80.7,2750.9,272.0,982.4,1614.8,2716.5,0,57.3,-200
0.168000,997.1,356.8,1605.0,92.0,2752.5,312.6,996.5,1618.3,2734.9,0,57,-200
0.170000,979.5,344.3,1603.9,123.7,2751.6,372.3,1009.3,1621.7,2752.2,0,56.4,-200
0.172000,981.2,345.0,1600.8,178.2,2758.5,446.6,1020.6,1624.7,2768,0,55.9,-200
0.174000,999.2,353.6,1600.1,228.4,2773.7,516.8,1030.4,1627.5,2782,0,55.2,-200
0.176000,1021.0,354.5,1606.6,249.1,2790.9,538.8,1038.5,1629.8,2793.9,0,54.6,-200
0.178000,1032.5,336.3,1620.6,248.0,2801.9,473.2,1044.9,1631.6,2803.4,0,54,-200
0.180000,1029.1,295.4,1643.9,244.0,2806.8,373.3,1049.5,1633,2810.4,0,53.5,-200
0.182000,1020.4,241.8,1672.3,238.3,2810.1,307.5,1052.3,1633.8,2814.6,0,53,-200
0.184000,1019.9,194.8,1695.8,228.9,2816.9,281.8,1053.2,1634.1,2816,0,52.7,-200
