time,f1,b1,f2,b2,f3,b3,f1p,f2p,f3p,f0,intensity,harmonicity
0.026000,688.2,40.6,1497.0,98.4,2590.8,259.9,680,1494.7,2630.1,172.2,75.2,14.1
0.028000,690.3,38.3,1489.7,100.1,2589.3,271.9,680.9,1493.6,2629.3,172.1,75.4,14.6
0.030000,692.1,37.5,1484.2,102.9,2590.7,275.1,682.3,1491.7,2628.1,172,75.6,14.9
0.032000,693.8,38.4,1479.4,109.5,2591.3,284.7,684.2,1489,2626.4,171.8,75.8,15.1
0.034000,695.6,40.8,1473.6,120.7,2590.6,309.7,686.6,1485.7,2624.3,171.7,75.8,15.2
0.036000,698.0,44.8,1465.9,136.7,2591.6,340.2,689.3,1481.8,2621.8,171.6,75.8,15.3
0.038000,700.5,49.7,1458.4,153.4,2596.8,350.8,692.4,1477.4,2618.9,171.5,75.6,15.2
0.040000,702.5,55.5,1454.2,167.7,2607.3,340.0,695.8,1472.5,2615.7,171.4,75.5,15.1
0.042000,704.3,61.7,1457.1,175.8,2623.8,328.8,699.4,1467.2,2612.2,171.3,75.2,15
0.044000,706.5,68.1,1465.5,177.5,2645.7,331.9,703.1,1461.6,2608.5,171.2,74.9,15
0.046000,709.3,73.9,1472.9,171.9,2666.1,345.9,706.7,1455.9,2604.6,171.1,74.6,15.3
0.048000,711.1,75.8,1472.3,161.4,2665.3,350.5,710.3,1450.1,2600.7,171.1,74.2,16
0.050000,711.7,73.6,1463.1,150.5,2636.4,318.4,713.7,1444.4,2596.6,171,73.8,16.8
0.052000,711.1,69.7,1450.1,143.1,2602.3,262.0,716.9,1438.8,2592.6,171,73.4,17.6
0.054000,709.6,66.7,1439.6,143.1,2582.6,225.1,719.7,1433.4,2588.7,170.9,73,18.1
0.056000,707.7,66.0,1431.9,154.6,2573.1,215.3,722.1,1428.3,2584.9,170.9,72.6,18.3
0.058000,706.9,68.9,1425.7,178.5,2574.4,220.4,724,1423.7,2581.2,170.9,72.2,18.1
0.060000,708.3,76.0,1420.2,214.0,2590.9,227.1,725.4,1419.6,2577.9,170.9,71.9,17.6
0.062000,711.1,85.1,1415.4,249.1,2614.7,223.7,726.2,1416.1,2574.8,170.9,71.7,17.2
0.064000,713.6,92.0,1411.2,270.9,2629.1,208.0,726.5,1413.3,2572.1,170.9,71.4,16.8
0.066000,715.4,95.2,1407.8,283.1,2627.9,183.3,726.1,1411.2,2569.8,170.9,71.2,16.9
0.068000,716.1,94.9,1404.7,291.8,2613.2,157.1,725.1,1409.8,2567.9,170.9,70.9,17.3
0.070000,715.9,92.3,1401.8,300.2,2591.9,136.3,723.5,1409.2,2566.5,170.8,70.7,17.9
0.072000,715.4,90.2,1403.6,312.2,2572.0,131.5,721.3,1409.4,2565.6,170.8,70.3,18.4
0.074000,714.7,90.4,1410.9,328.0,2556.8,140.3,718.6,1410.5,2565.2,170.8,70,18.7
0.076000,712.6,91.4,1419.7,342.5,2548.0,148.4,715.5,1412.3,2565.3,170.8,69.6,18.4
0.078000,708.3,91.2,1425.0,355.5,2549.4,141.9,711.9,1414.9,2566,170.7,69.3,17.7
0.080000,701.3,89.2,1426.9,375.6,2556.6,120.9,708.1,1418.2,2567.2,170.7,68.9,16.8
0.082000,692.9,85.3,1433.0,401.4,2561.9,99.7,704.1,1422.3,2569,170.6,68.6,15.7
0.084000,685.3,79.2,1451.3,412.9,2564.2,89.7,699.9,1427,2571.3,170.5,68.4,14.9
0.086000,679.7,72.3,1475.1,399.8,2567.8,91.8,695.8,1432.3,2574.1,170.4,68.3,14.4
0.088000,677.4,66.5,1489.9,377.0,2574.5,105.7,691.8,1438.1,2577.3,170.3,68.3,14.2
0.090000,678.2,60.8,1495.5,352.5,2583.8,135.3,688.1,1444.4,2581.1,170.2,68.3,14.2
0.092000,681.6,55.5,1495.0,327.7,2588.7,187.0,684.7,1451,2585.2,170.1,68.3,14.2
0.094000,686.7,52.4,1491.2,312.8,2579.3,258.3,681.9,1457.9,2589.8,169.9,68.2,14.1
0.096000,693.1,52.9,1482.8,319.0,2551.5,324.8,679.6,1465,2594.6,169.8,68.2,13.7
0.098000,699.5,56.0,1466.0,340.8,2523.8,332.5,678,1472.2,2599.8,169.6,68,13.2
0.100000,706.3,60.7,1438.8,364.5,2513.0,293.4,677.2,1479.5,2605.2,169.4,67.7,12.6
0.102000,712.7,68.9,1412.4,381.5,2518.9,264.3,677.4,1486.7,2610.9,169.3,67.3,11.7
0.104000,718.3,81.2,1406.3,383.6,2534.1,270.4,678.4,1493.8,2616.7,169.1,66.9,10.7
0.106000,723.8,96.1,1426.9,361.2,2558.0,295.4,680.6,1500.8,2622.6,168.9,66.4,9.1
0.108000,728.8,108.9,1454.4,327.5,2587.0,304.9,683.7,1507.5,2628.6,168.8,65.8,6.8
0.110000,733.0,120.2,1475.0,306.0,2616.4,305.2,688,1513.9,2634.6,168.6,65.1,4.2
0.112000,735.8,133.8,1487.4,314.5,2645.6,335.8,693.4,1520,2640.6,168.5,64.3,1.7
0.114000,738.2,156.5,1494.8,361.9,2674.2,443.7,699.9,1525.7,2646.6,168.4,63.4,-0.1
0.116000,740.6,197.1,1500.0,452.5,2685.8,625.4,707.5,1531,2652.5,168.3,62.5,-0.8
0.118000,738.4,254.4,1503.6,541.6,2721.3,714.4,716.1,1536,2658.3,168.3,61.5,-0.3
0.120000,721.6,334.4,1506.9,584.8,2803.6,676.0,725.7,1540.5,2663.9,168.2,60.6,0.8
0.122000,695.3,430.6,1511.5,611.1,2843.2,607.9,736.3,1544.7,2669.4,168.2,59.8,2.1
0.124000,677.8,490.8,1521.7,635.4,2819.0,578.8,747.6,1548.5,2674.8,168.3,59.2,3.2
0.126000,678.1,462.0,1550.8,619.4,2765.6,577.9,759.6,1552,2680,168.3,58.8,4.6
0.128000,695.3,396.1,1585.1,589.1,2714.4,606.0,772.2,1555.1,2685,168.4,58.5,10.3
0.130000,722.6,348.6,1617.9,587.7,2674.1,635.4,785.3,1558,2689.9,168.4,58.1,16.7
0.132000,752.7,330.6,1646.6,606.4,2659.2,599.2,798.8,1560.6,2694.7,168.6,57.6,18.9
0.134000,783.3,346.8,1662.9,600.6,2666.2,512.6,812.4,1563.1,2699.3,168.7,56.9,12.1
0.136000,816.2,414.4,1647.9,522.4,2676.2,418.1,826.1,1565.4,2703.9,168.8,56.3,-10.1
0.138000,839.1,497.9,1615.8,385.9,2679.5,340.7,839.6,1567.7,2708.4,0,55.7,-55.1
0.140000,848.8,491.6,1605.1,260.8,2679.5,282.1,853,1569.9,2712.8,0,55.3,-110.7
0.142000,861.1,406.0,1612.7,189.4,2680.0,244.1,866,1572.2,2717.3,0,55.3,-162.3
0.144000,882.4,344.4,1616.3,145.0,2685.7,216.8,878.5,1574.5,2721.9,0,55.7,-195.2
0.146000,911.6,323.8,1605.9,102.8,2696.4,192.0,890.4,1576.9,2726.6,0,56.3,-194.4
0.148000,939.6,323.5,1592.1,70.4,2708.0,174.8,901.5,1579.5,2731.5,0,57,-156.3
0.150000,958.1,322.0,1582.0,49.5,2720.5,167.2,911.8,1582.3,2736.5,0,57.6,-98.7
0.152000,955.3,308.6,1576.0,38.1,2733.4,170.8,921.2,1585.3,2741.9,0,57.9,-41.1
0.154000,936.4,289.4,1572.7,33.7,2745.7,189.4,929.6,1588.4,2747.6,0,58.1,-3
0.156000,916.9,279.4,1571.2,35.3,2759.0,238.6,937,1591.8,2753.6,0,58,-2
0.158000,909.4,277.4,1571.2,42.7,2768.4,326.3,943.3,1595.4,2760.1,0,57.6,-34.7
0.160000,916.6,258.4,1572.9,56.8,2769.3,431.2,948.5,1599.2,2767.1,0,57.2,-86
0.162000,933.5,211.1,1577.3,78.3,2769.3,461.7,952.6,1603.2,2774.6,0,56.6,-141.3
0.164000,951.2,161.4,1585.7,107.2,2776.0,412.7,955.6,1607.3,2782.7,0,56,-186.1
0.166000,967.2,125.9,1599.6,136.1,2785.0,356.0,957.6,1611.6,2791.4,0,55.3,-208.2
0.168000,979.3,113.3,1608.0,133.7,2794.8,319.9,958.6,1615.9,2800.8,0,54.8,-214.9
0.170000,988.7,123.7,1605.2,101.2,2805.4,300.0,958.7,1620.2,2810.8,0,54.4,-212.7
0.172000,992.2,150.0,1602.0,69.4,2811.7,292.4,957.9,1624.4,2821.5,0,54.1,-206.4
0.174000,986.5,159.9,1603.7,49.0,2811.0,285.3,956.3,1628.6,2833,0,54,-200.9
0.176000,979.5,130.3,1606.0,37.4,2809.1,274.2,954.1,1632.6,2845.1,0,53.9,-200
0.178000,978.9,97.9,1605.4,33.5,2817.5,260.9,951.3,1636.3,2858,0,53.8,-200
0.180000,981.6,79.2,1603.0,35.5,2844.1,235.2,948,1639.7,2871.6,0,53.4,-200
0.182000,985.0,73.8,1601.2,44.4,2877.8,196.6,944.4,1642.8,2885.8,0,52.8,-200
0.184000,987.6,80.3,1603.0,64.0,2904.3,165.4,940.6,1645.4,2900.8,0,51.9,-200
0.186000,985.0,103.3,1610.3,99.8,2925.6,154.6,936.6,1647.6,2916.4,0,50.7,-200
0.188000,965.8,148.9,1619.4,138.8,2946.7,170.7,932.6,1649.2,2932.5,0,49.3,-200
0.190000,922.1,215.9,1632.0,163.7,2977.8,216.2,928.7,1650.2,2949.2,0,47.9,-200
0.192000,878.9,274.8,1654.8,177.9,3020.4,276.2,925,1650.6,2966.5,0,46.5,-200
0.194000,855.0,317.7,1678.2,184.1,3053.9,312.1,921.6,1650.4,2984.1,0,45.6,-200
0.196000,845.1,354.8,1690.4,178.7,3074.5,318.5,918.6,1649.5,3002.1,0,45,-200
0.198000,841.8,382.1,1686.6,162.5,3090.1,313.6,915.9,1647.9,3020.4,0,44.6,-200
0.200000,838.1,405.1,1672.2,137.4,3096.8,302.3,913.7,1645.7,3038.8,0,44.4,-200
0.202000,838.1,443.5,1655.8,114.3,3087.5,278.4,912.1,1642.8,3057.4,0,44.2,-200
0.204000,849.8,521.8,1643.4,102.4,3076.0,249.1,910.9,1639.3,3076.1,0,44,-200
0.206000,881.1,662.4,1635.5,103.8,3076.6,229.5,910.3,1635.2,3094.6,0,43.5,-200
0.208000,929.0,801.2,1631.9,116.4,3088.5,222.4,910.3,1630.6,3113,0,43,-200
0.210000,974.6,810.1,1632.8,136.3,3103.7,227.4,910.7,1625.6,3131.1,0,42.5,-200
0.212000,986.4,686.7,1636.4,152.2,3117.7,264.2,911.7,1620.1,3148.9,0,41.9,-200
0.214000,978.7,575.1,1638.3,158.5,3128.6,350.1,913.1,1614.4,3166.1,0,41.2,-200
0.216000,971.0,513.1,1642.3,165.5,3128.6,484.6,914.9,1608.4,3182.9,0,40.5,-200
0.218000,967.2,490.4,1654.9,184.2,3131.8,591.5,917.1,1602.2,3198.9,0,39.9,-200
0.220000,958.1,468.4,1679.1,212.6,3178.4,611.4,919.5,1596,3214.2,0,39.3,-200
0.222000,931.0,427.8,1696.6,224.4,3221.7,552.1,922.1,1589.9,3228.7,0,38.9,-200
0.224000,890.4,386.6,1683.1,209.5,3229.7,519.1,924.8,1583.8,3242.2,0,38.7,-200
0.226000,849.7,353.0,1645.0,177.0,3218.6,486.2,927.6,1578.1,3254.7,0,38.7,-200
0.228000,826.4,343.8,1606.3,144.0,3222.5,434.7,930.3,1572.6,3266.2,0,38.8,-200
0.230000,825.3,378.5,1577.4,121.8,3247.0,389.2,933,1567.6,3276.4,0,38.8,-200
0.232000,851.6,478.7,1559.6,120.2,3278.0,364.1,935.4,1563,3285.4,0,38.8,-200
0.234000,903.6,637.9,1543.4,140.3,3309.7,365.6,937.6,1559,3293.1,0,38.6,-200
0.236000,972.1,826.3,1515.8,177.9,3345.3,388.2,939.5,1555.7,3299.5,0,38.3,-200
0.238000,1018.8,986.3,1477.9,205.7,3365.3,412.6,941,1553,3304.6,0,37.8,-200
0.240000,1017.6,1060.3,1449.6,208.4,3352.9,449.3,942.1,1551.1,3308.2,0,37.2,-200
0.242000,1002.6,1028.6,1444.9,209.8,3328.5,499.5,942.8,1549.9,3310.3,0,36.6,-200
0.244000,998.0,996.7,1450.6,220.3,3324.2,558.2,943,1549.5,3311.1,0,36.1,-200
