time,f1,b1,f2,b2,f3,b3,f1p,f2p,f3p,f0,intensity,harmonicity
0.025000,737.2,162.2,1423.9,187.5,2528.2,146.4,763,1436.6,2525.6,153.7,77.1,6.6
0.027000,743.0,156.9,1427.0,170.8,2530.9,130.4,763.5,1437,2526.4,153.3,77.2,7.1
0.029000,749.3,152.3,1428.1,158.4,2530.5,120.0,764.3,1437.6,2527.7,152.8,77.4,7.8
0.031000,756.3,148.8,1430.1,153.3,2529.9,118.2,765.5,1438.4,2529.5,152.3,77.5,8.6
0.033000,763.6,147.4,1434.3,155.5,2529.9,127.0,767,1439.4,2531.8,151.8,77.6,9.1
0.035000,770.1,145.8,1440.1,159.8,2531.0,143.6,768.8,1440.7,2534.6,151.3,77.6,9
0.037000,774.9,140.6,1444.6,158.0,2533.0,156.1,771,1442.2,2537.7,150.7,77.6,8
0.039000,778.7,134.3,1446.8,149.1,2534.1,154.3,773.5,1443.9,2541.2,150.2,77.6,6.3
0.041000,782.3,130.8,1447.9,138.2,2533.9,142.4,776.4,1445.8,2545,149.7,77.6,4.3
0.043000,785.8,130.4,1449.3,130.0,2535.5,131.2,779.7,1447.9,2549,149.1,77.5,2.9
0.045000,790.7,134.1,1452.6,128.9,2541.7,129.0,783.3,1450.2,2553.3,148.6,77.5,2.7
0.047000,797.9,141.7,1457.6,134.9,2551.9,139.5,787.2,1452.6,2557.6,148.1,77.4,4.1
0.049000,805.2,147.1,1462.1,140.4,2563.1,155.5,791.4,1455.2,2562.1,147.7,77.4,6.8
0.051000,809.7,145.8,1464.2,140.0,2571.7,160.6,796,1458,2566.6,147.2,77.4,9.9
0.053000,812.7,141.9,1464.6,138.3,2577.0,150.2,800.8,1460.8,2571.1,146.8,77.5,12.7
0.055000,816.7,140.9,1465.8,139.8,2581.7,134.2,805.9,1463.7,2575.5,146.4,77.5,14.4
0.057000,821.9,142.3,1469.9,142.3,2587.8,120.9,811.2,1466.7,2579.9,146,77.5,14.5
0.059000,827.9,143.6,1477.4,143.2,2594.9,113.8,816.6,1469.7,2584.1,145.7,77.5,13.6
0.061000,834.7,143.6,1487.1,143.7,2602.7,116.2,822.1,1472.6,2588.1,145.4,77.6,12.3
0.063000,840.2,140.2,1495.6,143.3,2609.9,127.3,827.7,1475.6,2592,145.1,77.6,11.2
0.065000,841.7,133.8,1499.4,140.9,2612.9,140.6,833.2,1478.4,2595.6,144.9,77.6,10.6
0.067000,841.7,129.5,1499.3,139.3,2610.0,153.2,838.7,1481.1,2599,144.8,77.6,11
0.069000,843.0,130.9,1497.4,140.7,2604.6,163.7,844,1483.7,2602.2,144.6,77.6,11.9
0.071000,844.6,134.2,1493.1,141.1,2600.9,165.6,849.1,1486,2605.2,144.5,77.5,13
0.073000,844.8,134.8,1486.0,136.5,2599.6,156.9,853.8,1488.1,2608.1,144.4,77.4,13.9
0.075000,845.4,134.5,1477.5,128.6,2600.5,143.1,858.2,1490,2610.7,144.4,77.4,14.3
0.077000,848.0,134.8,1471.5,120.1,2603.4,128.7,862,1491.5,2613.1,144.4,77.3,13.9
0.079000,851.7,134.8,1469.9,113.8,2607.7,115.8,865.4,1492.7,2615.4,144.4,77.3,13
0.081000,855.6,136.1,1471.3,113.0,2612.0,105.5,868.2,1493.5,2617.6,144.5,77.3,11.9
0.083000,859.8,139.3,1474.2,117.0,2614.9,96.7,870.3,1494,2619.8,144.5,77.3,10.9
0.085000,861.8,140.8,1476.4,119.1,2616.8,88.3,871.7,1494,2621.8,144.6,77.3,10.6
0.087000,861.0,139.7,1477.6,117.1,2618.9,81.9,872.3,1493.7,2623.8,144.7,77.3,10.9
0.089000,860.2,139.6,1479.1,115.7,2622.4,79.7,872.2,1493,2625.9,144.8,77.2,11.6
0.091000,860.6,140.6,1481.2,116.8,2627.2,81.4,871.3,1491.9,2627.9,144.9,77.1,12.6
0.093000,860.6,140.0,1482.8,117.8,2633.5,84.2,869.7,1490.4,2630,145.1,77,13.7
0.095000,859.9,138.9,1483.6,118.9,2643.0,87.4,867.2,1488.5,2632.2,145.2,76.9,14.7
0.097000,859.3,139.4,1483.9,121.5,2654.3,90.8,864.1,1486.3,2634.5,145.3,76.8,15.7
0.099000,857.7,138.7,1483.1,123.9,2660.6,92.7,860.2,1483.9,2636.8,145.5,76.6,17
0.101000,853.7,135.3,1481.1,126.6,2657.5,92.6,855.8,1481.2,2639.2,145.6,76.4,18.2
0.103000,848.5,132.1,1479.0,134.0,2647.7,91.4,850.8,1478.3,2641.7,145.7,76.2,19.2
0.105000,844.4,130.1,1478.6,145.9,2637.8,90.1,845.3,1475.3,2644.3,145.9,76,19.6
0.107000,842.2,128.3,1481.3,156.3,2632.3,90.2,839.5,1472.3,2647,146,75.7,19.5
0.109000,841.8,126.9,1487.2,164.2,2630.6,94.5,833.5,1469.3,2649.6,146.1,75.5,18.9
0.111000,842.0,124.9,1494.5,172.4,2630.8,103.6,827.3,1466.4,2652.3,146.2,75.2,18
0.113000,841.3,120.0,1500.3,180.1,2630.8,112.2,821.2,1463.6,2655,146.3,74.9,17
0.115000,838.5,111.8,1503.4,188.9,2629.6,115.2,815.3,1461.1,2657.5,146.4,74.6,16.1
0.117000,834.1,103.0,1501.2,206.2,2627.5,116.6,809.7,1458.9,2660,146.5,74.3,15.2
0.119000,829.6,96.4,1487.9,229.6,2625.8,123.4,804.6,1457.1,2662.4,146.5,74,14.2
0.121000,824.6,93.8,1462.3,234.8,2627.0,139.4,800,1455.8,2664.6,146.6,73.6,13.2
0.123000,818.3,95.8,1437.5,215.2,2636.7,172.0,796.2,1455,2666.6,146.7,73.2,12.3
0.125000,812.6,102.2,1423.7,195.0,2662.4,233.4,793.2,1454.8,2668.3,146.7,72.9,11.5
0.127000,809.6,111.1,1419.7,186.8,2701.6,305.1,791.2,1455.3,2669.8,146.8,72.4,11.1
0.129000,807.1,122.6,1421.5,187.6,2727.7,330.3,790.3,1456.4,2671,146.8,72,10.8
0.131000,801.4,137.7,1429.7,189.6,2729.9,311.2,790.6,1458.3,2671.8,146.8,71.5,10.5
0.133000,792.3,152.5,1445.2,185.8,2724.0,282.7,792.1,1460.9,2672.4,146.9,70.9,10.2
0.135000,782.4,163.1,1463.3,180.6,2715.5,253.7,794.9,1464.3,2672.6,146.9,70.3,9.8
0.137000,773.1,170.4,1479.4,183.5,2704.1,230.9,799.1,1468.5,2672.5,146.9,69.8,9.1
0.139000,765.1,175.1,1492.2,193.3,2692.1,221.3,804.6,1473.4,2672,146.9,69.2,8.2
0.141000,759.3,180.5,1498.3,186.9,2682.1,211.1,811.4,1479,2671.3,146.9,68.7,7.3
0.143000,755.8,200.6,1494.1,155.6,2676.8,180.1,819.6,1485.3,2670.3,146.9,68.3,6.4
0.145000,757.2,249.7,1483.8,125.3,2675.2,144.3,829,1492.2,2669.1,146.9,67.9,5.6
0.147000,773.1,321.4,1476.5,109.9,2672.7,122.5,839.5,1499.8,2667.7,146.9,67.6,4.9
0.149000,812.1,387.5,1480.4,106.4,2666.9,113.3,851.2,1507.8,2666.2,146.9,67.4,4.2
0.151000,859.1,438.2,1494.1,105.6,2658.6,107.6,863.8,1516.3,2664.7,146.9,67.1,3.6
0.153000,890.7,498.0,1508.5,103.5,2650.4,101.9,877.3,1525.1,2663.2,146.9,66.9,3.2
0.155000,904.7,577.0,1518.8,105.1,2643.8,100.5,891.5,1534.1,2661.8,146.9,66.6,2.9
0.157000,923.7,626.2,1528.9,118.6,2638.8,110.7,906.2,1543.3,2660.6,146.9,66.3,6.1
0.159000,965.0,575.7,1547.0,144.2,2636.5,140.3,921.3,1552.5,2659.6,146.9,66,12.9
0.161000,1002.5,467.9,1571.6,154.0,2638.2,184.9,936.6,1561.7,2659,0,65.8,18.1
0.163000,1023.8,389.4,1588.0,146.4,2640.3,217.8,952,1570.7,2658.8,0,65.6,16.8
0.165000,1035.0,348.1,1597.3,147.3,2638.1,229.7,967.2,1579.5,2659.1,0,65.4,3.9
0.167000,1036.2,323.6,1606.4,163.7,2633.8,240.4,982.1,1587.9,2659.9,0,65.3,-27
0.169000,1025.8,293.0,1617.2,186.6,2632.0,257.2,996.6,1595.8,2661.4,0,65,-72.7
0.171000,1010.9,251.5,1627.1,206.2,2635.2,271.7,1010.4,1603.2,2663.6,0,64.7,-123.3
0.173000,1004.6,214.2,1632.6,227.4,2639.9,272.3,1023.5,1610,2666.5,0,64.4,-169
0.175000,1011.3,186.3,1635.1,253.1,2642.7,257.4,1035.7,1616.1,2670.1,0,64.1,-200
0.177000,1022.1,160.5,1637.8,265.1,2650.6,235.6,1046.9,1621.5,2674.5,0,63.8,-213.1
0.179000,1029.8,138.7,1639.1,255.4,2667.6,211.1,1057,1626.1,2679.7,0,63.6,-214.7
0.181000,1037.0,129.6,1635.4,234.6,2685.6,186.4,1066,1630,2685.6,0,63.2,-209.8
0.183000,1050.1,137.5,1632.0,210.8,2697.9,173.6,1073.7,1633,2692.3,0,62.9,-203.3
0.185000,1069.5,156.0,1636.6,188.2,2709.9,180.1,1080.3,1635.2,2699.7,0,62.7,-200
0.187000,1087.1,168.9,1645.5,167.6,2732.3,195.7,1085.6,1636.7,2707.7,0,62.4,-200
0.189000,1097.7,169.8,1649.4,149.7,2763.6,200.3,1089.7,1637.4,2716.3,0,62.2,-200
0.191000,1105.2,168.6,1642.2,140.4,2787.9,186.3,1092.7,1637.3,2725.4,0,61.9,-200
0.193000,1109.0,172.0,1625.6,143.0,2797.6,166.7,1094.6,1636.7,2734.9,0,61.7,-200
0.195000,1103.1,175.0,1606.4,156.4,2800.4,156.8,1095.4,1635.4,2744.7,0,61.4,-200
0.197000,1090.3,171.5,1592.8,179.0,2801.3,162.1,1095.3,1633.6,2754.7,0,61.2,-200
0.199000,1078.8,165.7,1586.7,199.2,2797.2,174.6,1094.5,1631.4,2764.7,0,61,-200
0.201000,1070.6,165.4,1584.1,193.8,2788.6,180.9,1092.9,1628.8,2774.7,0,60.7,-200
0.203000,1064.2,171.2,1586.9,164.2,2782.4,185.7,1090.8,1626,2784.6,0,60.3,-200
0.205000,1060.5,180.1,1598.6,132.1,2781.3,199.2,1088.2,1623,2794,0,59.9,-200
0.207000,1061.9,192.6,1614.5,109.5,2784.3,213.2,1085.4,1619.9,2803.1,0,59.5,-200
0.209000,1069.4,212.2,1625.7,99.8,2788.6,199.8,1082.4,1616.9,2811.6,0,59,-200
0.211000,1075.8,245.0,1626.6,104.6,2792.1,166.2,1079.4,1613.9,2819.4,0,58.6,-200
0.213000,1070.0,292.8,1618.2,121.6,2798.0,145.4,1076.6,1611.2,2826.4,0,58.2,-200
0.215000,1056.3,341.3,1608.8,146.7,2808.7,140.9,1073.9,1608.8,2832.5,0,57.9,-200
0.217000,1047.9,373.3,1606.5,180.0,2820.3,141.4,1071.6,1606.7,2837.6,0,57.7,-200
0.219000,1052.9,386.1,1614.6,226.4,2828.0,140.1,1069.7,1605,2841.7,0,57.4,-200
0.221000,1075.8,389.1,1629.8,293.3,2834.1,141.6,1068.3,1603.8,2844.6,0,57.1,-200
0.223000,1117.1,393.3,1640.3,386.2,2842.1,151.3,1067.5,1603,2846.4,0,56.7,-200
0.225000,1170.1,409.0,1630.5,504.4,2849.2,167.8,1067.2,1602.7,2847,0,56.3,-200
