time,f1,b1,f2,b2,f3,b3,f1p,f2p,f3p,f0,intensity,harmonicity
0.025000,743.6,38.6,1537.5,86.9,2705.7,254.7,770.5,1516.2,2706.5,145,75.7,7.6
0.027000,748.1,40.4,1531.2,88.5,2712.8,265.8,771.5,1516.1,2705.7,144.8,75.7,7.7
0.029000,753.1,44.5,1524.8,91.4,2723.0,278.7,773.2,1516,2704.4,144.5,75.6,7.5
0.031000,759.0,49.7,1520.4,91.9,2729.4,275.1,775.5,1515.8,2702.6,144.3,75.5,7.3
0.033000,765.9,56.8,1519.9,91.3,2724.3,237.7,778.4,1515.5,2700.4,144,75.2,7
0.035000,776.3,69.6,1521.3,92.0,2710.6,186.2,781.9,1515.2,2697.7,143.7,75,6.9
0.037000,789.4,83.7,1521.5,92.3,2698.5,150.9,785.9,1514.8,2694.6,143.5,74.8,7
0.039000,801.1,89.5,1520.0,91.7,2691.7,135.1,790.3,1514.2,2691.2,143.2,74.6,7
0.041000,811.1,86.4,1517.6,93.3,2686.3,131.4,795.1,1513.5,2687.6,142.9,74.5,7.2
0.043000,818.7,79.9,1513.8,98.1,2680.2,133.9,800.2,1512.7,2683.8,142.6,74.4,7.5
0.045000,824.1,73.8,1508.3,103.2,2673.4,134.3,805.6,1511.7,2679.8,142.4,74.5,8.1
0.047000,827.8,70.0,1502.9,107.1,2667.6,131.6,811.1,1510.5,2675.8,142.1,74.5,9
0.049000,830.9,68.3,1498.6,110.3,2662.6,133.0,816.7,1509,2671.8,141.8,74.6,10.3
0.051000,834.2,66.4,1495.2,111.6,2657.8,139.3,822.3,1507.4,2667.8,141.6,74.7,11.8
0.053000,837.3,64.2,1493.0,110.5,2654.6,142.8,827.8,1505.5,2664.1,141.3,74.8,13
0.055000,840.5,63.5,1491.4,109.7,2652.1,142.1,833.2,1503.4,2660.5,141.1,74.8,13.6
0.057000,843.1,64.6,1489.2,109.5,2649.9,142.3,838.4,1501,2657.3,140.8,74.9,13.6
0.059000,845.9,65.2,1486.6,108.3,2649.5,142.9,843.3,1498.4,2654.4,140.6,74.8,12.9
0.061000,850.0,65.6,1484.8,107.9,2650.9,140.8,847.9,1495.6,2651.9,140.4,74.8,12.1
0.063000,854.4,68.4,1484.1,111.0,2652.1,139.6,852.2,1492.5,2649.8,140.2,74.7,11.5
0.065000,857.4,72.8,1482.3,115.7,2653.0,146.0,856,1489.3,2648.3,140,74.5,11.4
0.067000,857.8,74.4,1477.0,119.0,2659.0,160.1,859.4,1485.8,2647.3,139.9,74.3,11.9
0.069000,857.1,74.1,1469.3,121.6,2672.7,1323.4,862.4,1482.2,2646.8,139.7,74.1,13
0.071000,856.8,75.4,1461.3,124.5,2561.5,1165.5,865,1478.5,2646.9,139.6,73.9,14.2
0.073000,857.7,78.0,1457.3,125.1,2535.0,1127.2,867.1,1474.7,2647.6,139.5,73.7,15.5
0.075000,861.0,80.6,1458.8,124.5,2582.3,1237.3,868.8,1470.9,2648.9,139.4,73.5,16.4
0.077000,865.9,85.2,1463.2,126.5,2682.5,166.3,870.1,1467.1,2650.7,139.3,73.3,17.1
0.079000,870.3,91.7,1466.4,129.3,2668.7,151.9,871,1463.4,2653.1,139.3,73.1,17.8
0.081000,873.7,97.1,1467.1,129.4,2659.6,140.8,871.6,1459.9,2656,139.3,72.8,18.3
0.083000,877.5,100.8,1467.1,128.0,2656.7,133.8,872,1456.5,2659.3,139.2,72.6,18.5
0.085000,882.2,106.8,1466.9,128.9,2661.0,134.1,872.1,1453.3,2663.1,139.2,72.3,18.4
0.087000,885.1,114.4,1465.4,130.5,2673.0,147.1,872.1,1450.5,2667.3,139.3,72.1,17.6
0.089000,884.1,119.8,1463.8,127.7,2688.2,165.8,872.1,1448,2671.9,139.3,71.8,16.4
0.091000,879.4,123.6,1462.5,120.7,2703.2,187.0,872,1446,2676.7,139.3,71.6,14.9
0.093000,872.5,128.1,1460.7,115.0,2716.4,219.8,872.1,1444.5,2681.7,139.4,71.5,13.6
0.095000,865.1,134.2,1458.3,115.5,2731.7,272.7,872.3,1443.4,2686.8,139.5,71.3,12.7
0.097000,862.7,142.8,1459.1,124.0,2743.2,310.0,872.7,1443,2692.1,139.6,71.2,12.5
0.099000,866.5,154.5,1465.1,138.2,2742.8,301.4,873.4,1443.2,2697.3,139.7,71,12.7
0.101000,871.2,162.8,1472.9,150.6,2735.6,262.5,874.5,1444,2702.5,139.8,70.9,13.1
0.103000,871.5,162.0,1475.8,151.9,2725.6,219.8,876.1,1445.5,2707.5,139.9,70.7,13.5
0.105000,869.8,158.5,1472.7,145.4,2713.9,179.5,878.2,1447.7,2712.4,140,70.4,13.8
0.107000,870.3,157.6,1464.4,138.6,2705.2,150.3,880.8,1450.6,2717,140.1,70.2,14.1
0.109000,873.7,155.9,1454.6,135.1,2703.0,136.6,884,1454.2,2721.3,140.3,69.8,14.4
0.111000,880.2,151.5,1448.3,135.4,2707.3,133.0,887.9,1458.5,2725.3,140.4,69.4,14.7
0.113000,890.7,147.7,1447.7,142.5,2717.4,133.4,892.4,1463.4,2728.9,140.5,69,14.8
0.115000,902.9,146.4,1448.7,161.2,2732.5,130.9,897.6,1469,2732.1,140.7,68.6,14.5
0.117000,909.2,147.2,1446.5,186.6,2741.8,119.6,903.4,1475.2,2734.8,140.8,68.2,13.6
0.119000,909.2,150.5,1440.9,206.9,2741.0,105.1,910,1482,2737.1,141,67.8,12.3
0.121000,907.1,161.1,1433.9,222.9,2739.9,95.3,917.1,1489.2,2738.8,141.1,67.4,10.7
0.123000,908.1,174.5,1433.8,231.4,2744.1,94.2,924.8,1496.9,2740.1,141.3,66.9,9.3
0.125000,916.6,179.3,1450.1,230.5,2751.4,100.7,933.1,1504.9,2741,141.4,66.3,8.1
0.127000,930.1,174.0,1481.6,224.0,2755.9,117.0,941.9,1513.2,2741.4,141.6,65.6,7.3
0.129000,942.2,169.3,1519.0,217.1,2753.4,151.6,951.2,1521.7,2741.3,141.7,64.9,6.6
0.131000,952.7,174.5,1559.7,211.8,2737.0,225.7,960.8,1530.3,2740.9,141.9,64.1,6
0.133000,965.5,193.6,1593.3,208.1,2699.6,326.3,970.7,1539,2740.1,142,63.3,5.6
0.135000,987.0,227.2,1613.5,211.1,2656.8,392.3,980.8,1547.6,2739,142.1,62.5,5.3
0.137000,1015.5,260.4,1618.8,230.6,2654.9,395.5,991.1,1556,2737.6,142.3,61.7,8.5
0.139000,1034.6,278.3,1611.8,279.2,2682.4,386.7,1001.3,1564.1,2736,142.4,61,15.2
0.141000,1038.6,287.7,1587.8,377.0,2709.7,387.8,1011.5,1572,2734.2,142.5,60.2,20.3
0.143000,1038.2,291.1,1552.3,494.5,2721.1,380.0,1021.6,1579.4,2732.3,142.7,59.5,18.8
0.145000,1038.9,273.9,1547.8,517.9,2735.1,323.9,1031.4,1586.3,2730.3,142.8,58.8,5.8
0.147000,1038.5,246.5,1580.5,390.8,2755.3,231.8,1040.8,1592.7,2728.4,142.9,58.2,-25.5
0.149000,1038.7,229.4,1598.0,267.3,2762.2,164.9,1049.8,1598.4,2726.5,143,57.5,-71.6
0.151000,1040.2,225.6,1603.3,197.4,2758.3,130.5,1058.3,1603.5,2724.8,143.1,57,-122.6
0.153000,1049.0,239.8,1603.2,174.5,2750.7,116.9,1066.2,1607.8,2723.2,0,56.5,-168.7
0.155000,1077.3,277.8,1597.0,188.1,2742.9,115.2,1073.5,1611.4,2721.9,0,56.2,-200
0.157000,1121.6,317.0,1583.9,214.7,2737.2,118.9,1080,1614.3,2720.8,0,56,-213.2
0.159000,1138.4,310.1,1580.5,185.8,2734.1,117.5,1085.8,1616.3,2720,0,56.1,-214.8
0.161000,1128.1,247.8,1593.6,123.5,2731.2,112.0,1090.8,1617.5,2719.6,0,56.4,-209.9
0.163000,1119.8,184.0,1608.6,85.3,2727.2,109.8,1095,1618,2719.5,0,56.7,-203.3
0.165000,1113.5,138.7,1621.1,67.0,2723.0,116.5,1098.4,1617.7,2719.8,0,57,-200
0.167000,1105.2,112.6,1628.8,61.7,2721.2,137.2,1101,1616.7,2720.6,0,57.1,-200
0.169000,1094.1,100.4,1631.0,66.7,2723.0,176.7,1102.7,1615.1,2721.7,0,57.1,-200
0.171000,1079.8,95.8,1628.2,86.1,2725.0,244.5,1103.7,1612.8,2723.3,0,57.1,-200
0.173000,1066.9,91.2,1623.6,122.5,2716.6,318.0,1103.9,1610.1,2725.2,0,57.1,-200
0.175000,1058.2,79.9,1626.7,166.4,2702.2,351.6,1103.3,1606.8,2727.6,0,57.1,-200
0.177000,1055.5,65.1,1645.4,181.6,2707.5,321.6,1102.1,1603.1,2730.3,0,57.1,-200
0.179000,1058.1,55.9,1655.7,163.0,2726.3,276.4,1100.3,1599.2,2733.4,0,57.2,-200
0.181000,1065.9,56.3,1637.7,134.4,2743.4,254.3,1098,1595,2736.8,0,57.3,-200
0.183000,1075.9,64.9,1606.9,106.5,2752.3,258.9,1095.2,1590.8,2740.4,0,57.4,-200
0.185000,1086.4,81.3,1581.5,81.1,2755.6,281.5,1091.9,1586.4,2744.3,0,57.5,-200
0.187000,1096.0,105.9,1567.9,64.0,2756.2,307.6,1088.4,1582.2,2748.4,0,57.7,-200
0.189000,1102.3,127.8,1561.9,53.5,2759.9,312.1,1084.7,1578.1,2752.7,0,57.9,-200
0.191000,1103.0,131.5,1557.8,45.0,2768.8,286.4,1080.8,1574.3,2757.1,0,58.2,-200
0.193000,1099.7,119.7,1553.9,38.9,2777.3,249.0,1076.9,1570.8,2761.5,0,58.3,-200
0.195000,1093.4,102.6,1549.2,35.3,2784.3,217.4,1073,1567.7,2765.9,0,58.2,-200
0.197000,1085.2,87.5,1543.4,34.8,2789.9,198.8,1069.2,1565.1,2770.3,0,57.9,-200
0.199000,1077.1,79.4,1537.8,36.7,2792.5,189.9,1065.5,1563.1,2774.6,0,57.3,-200
0.201000,1068.7,82.0,1535.1,39.3,2790.4,188.0,1062.1,1561.6,2778.7,0,56.4,-200
0.203000,1058.3,99.3,1538.9,40.0,2786.0,194.5,1059,1560.8,2782.8,0,55.3,-200
0.205000,1039.3,125.8,1546.4,38.7,2781.8,216.3,1056.2,1560.6,2786.6,0,54.1,-200
0.207000,1018.6,127.0,1552.4,37.5,2775.9,275.3,1053.8,1561.1,2790.2,0,52.9,-200
0.209000,1012.9,109.6,1553.6,39.0,2765.0,403.5,1051.9,1562.3,2793.5,0,51.9,-200
0.211000,1018.1,101.6,1550.5,43.2,2749.3,604.7,1050.3,1564.1,2796.6,0,51,-200
0.213000,1025.6,105.6,1547.3,50.0,2766.7,695.4,1049.3,1566.6,2799.3,0,50.2,-200
0.215000,1031.6,115.3,1549.3,63.6,2802.7,629.8,1048.7,1569.8,2801.8,0,49.5,-200
0.217000,1036.7,123.7,1564.3,86.3,2824.3,543.7,1048.5,1573.5,2804,0,48.8,-200
0.219000,1044.1,124.9,1590.9,107.5,2837.5,440.1,1048.8,1577.8,2805.8,0,48,-200
0.221000,1057.6,124.2,1618.2,122.0,2829.0,312.9,1049.5,1582.5,2807.4,0,47.3,-200
0.223000,1077.6,130.4,1634.4,139.8,2806.5,230.8,1050.5,1587.6,2808.7,0,46.5,-200
0.225000,1106.1,150.2,1639.3,180.0,2781.3,197.0,1051.9,1593,2809.7,0,45.6,-200
0.227000,1136.4,179.5,1632.2,254.0,2758.2,198.6,1053.6,1598.7,2810.5,0,44.9,-200
0.229000,1149.6,199.5,1616.5,331.5,2738.4,221.4,1055.5,1604.6,2811.1,0,44.2,-200
0.231000,1135.0,201.9,1605.1,335.2,2724.9,261.3,1057.6,1610.4,2811.4,0,43.8,-200
0.233000,1108.9,193.4,1613.9,259.7,2734.0,318.1,1059.9,1616.3,2811.6,0,43.6,-200
0.235000,1085.4,195.4,1631.4,180.1,2779.6,387.4,1062.2,1622,2811.6,0,43.5,-200
0.237000,1063.6,220.1,1644.4,129.2,2844.6,414.4,1064.5,1627.5,2811.5,0,43.6,-200
0.239000,1043.7,253.3,1650.3,100.1,2891.6,381.8,1066.7,1632.7,2811.4,0,43.6,-200
0.241000,1032.9,288.4,1650.5,85.5,2920.5,334.4,1068.8,1637.5,2811.1,0,43.6,-200
0.243000,1040.2,329.9,1648.2,84.6,2934.0,323.0,1070.8,1641.8,2810.9,0,43.5,-200
0.245000,1062.2,382.2,1646.9,91.9,2927.7,358.4,1072.6,1645.6,2810.6,0,43.1,-200
0.247000,1073.8,427.2,1646.9,101.5,2884.7,420.0,1074.1,1648.8,2810.4,0,42.7,-200
0.249000,1055.7,446.6,1646.2,110.0,2809.5,436.9,1075.3,1651.4,2810.2,0,42,-200
0.251000,1027.4,448.1,1643.6,126.7,2749.5,388.1,1076.1,1653.2,2810,0,41.2,-200
0.253000,1022.3,462.6,1631.1,165.0,2727.4,356.3,1076.7,1654.3,2809.9,0,40.4,-200
0.255000,1045.6,510.3,1587.7,215.1,2713.5,379.8,1076.9,1654.7,2809.9,0,39.6,-200
