time,f1,b1,f2,b2,f3,b3,f1p,f2p,f3p,f0,intensity,harmonicity
0.025000,707.0,47.5,1394.1,63.0,2482.3,125.4,756.9,1447.7,2521.3,173.5,72.7,2
0.027000,717.0,47.2,1399.4,57.6,2489.9,134.4,757.3,1447.5,2521.1,173.1,72.7,2.6
0.029000,726.1,51.4,1405.7,57.5,2499.1,151.2,758,1447.1,2520.7,172.6,72.8,3.7
0.031000,736.2,59.9,1414.8,61.6,2510.3,162.6,758.9,1446.5,2520.1,172.1,72.7,4.9
0.033000,747.3,70.8,1425.7,69.4,2519.4,166.9,760.1,1445.8,2519.4,171.6,72.6,6.1
0.035000,756.9,79.6,1434.8,80.7,2522.5,182.6,761.6,1444.9,2518.6,171.1,72.3,6.9
0.037000,763.5,81.7,1440.4,89.9,2518.3,224.4,763.3,1444,2517.6,170.6,72.1,7.4
0.039000,769.7,78.5,1445.6,91.0,2508.7,289.6,765.2,1443,2516.6,170,71.9,7.5
0.041000,776.5,74.1,1451.2,86.7,2500.2,362.9,767.3,1441.9,2515.5,169.5,71.8,7.6
0.043000,782.8,69.1,1454.9,80.2,2495.6,413.7,769.6,1440.8,2514.4,168.9,71.8,7.7
0.045000,788.1,64.1,1456.2,73.6,2495.1,424.7,772,1439.7,2513.3,168.3,72,8.1
0.047000,792.1,59.4,1456.1,67.8,2496.8,415.1,774.6,1438.6,2512.1,167.8,72.2,8.7
0.049000,794.6,55.5,1455.9,62.9,2500.0,402.9,777.3,1437.6,2511,167.2,72.5,9.5
0.051000,796.9,53.2,1456.4,59.4,2507.3,394.2,780.2,1436.6,2509.9,166.6,72.8,10.4
0.053000,799.7,52.4,1457.6,57.6,2518.4,383.0,783.1,1435.8,2508.9,166.1,73.1,11.3
0.055000,802.9,52.4,1458.8,57.5,2527.2,364.2,786,1435,2508,165.5,73.3,12.1
0.057000,805.8,52.5,1459.2,58.6,2530.8,346.0,789,1434.5,2507.2,165,73.6,12.9
0.059000,808.3,52.7,1458.6,60.4,2534.5,329.2,792,1434.1,2506.6,164.4,73.8,13.8
0.061000,810.4,53.7,1457.5,62.5,2540.4,300.9,795,1434,2506.1,163.9,74,14.6
0.063000,812.5,56.8,1456.5,65.4,2544.6,256.4,798,1434,2505.8,163.4,74.2,15.2
0.065000,814.9,61.5,1456.5,68.0,2546.2,210.4,801,1434.4,2505.7,162.9,74.4,15.5
0.067000,817.3,66.0,1457.4,68.5,2548.0,175.9,803.9,1434.9,2505.8,162.4,74.5,15.3
0.069000,819.1,69.8,1458.0,67.6,2551.5,157.3,806.7,1435.7,2506.1,161.9,74.6,14.7
0.071000,819.7,71.8,1457.1,66.6,2555.4,158.3,809.5,1436.8,2506.6,161.5,74.7,13.9
0.073000,818.4,69.4,1454.1,65.4,2557.7,187.2,812.2,1438.1,2507.3,161,74.8,13.3
0.075000,816.8,64.6,1450.2,63.8,2553.8,249.4,814.8,1439.7,2508.2,160.6,74.8,13.1
0.077000,816.5,61.9,1447.3,62.9,2526.9,306.2,817.3,1441.5,2509.2,160.2,74.9,13.3
0.079000,817.6,62.0,1446.7,62.9,2501.3,283.1,819.7,1443.5,2510.5,159.8,74.9,14
0.081000,819.7,64.6,1447.9,63.4,2495.9,246.8,822,1445.8,2511.9,159.4,74.9,14.7
0.083000,822.1,68.8,1449.6,64.1,2497.5,225.1,824.2,1448.3,2513.5,159,74.8,15.3
0.085000,824.1,72.4,1451.2,64.7,2500.0,214.7,826.3,1451,2515.3,158.7,74.8,15.5
0.087000,825.7,73.8,1451.8,65.7,2499.0,214.4,828.4,1453.8,2517.1,158.3,74.7,15.2
0.089000,826.9,74.2,1451.1,68.2,2492.8,222.1,830.4,1456.7,2519,158,74.6,14.3
0.091000,827.9,74.6,1449.9,71.2,2487.2,227.6,832.4,1459.8,2521,157.7,74.4,13.4
0.093000,829.6,75.3,1449.8,73.7,2487.0,228.9,834.3,1463,2523.1,157.5,74.2,12.7
0.095000,832.5,77.9,1450.8,76.6,2490.2,230.7,836.2,1466.2,2525.2,157.2,74,12.5
0.097000,835.6,82.1,1451.8,80.0,2494.3,231.2,838.1,1469.4,2527.2,157,73.8,13.3
0.099000,837.6,85.5,1452.5,82.8,2499.6,226.7,840,1472.6,2529.3,156.7,73.6,14.7
0.101000,838.8,87.9,1453.0,85.9,2505.7,219.4,842,1475.8,2531.3,156.5,73.5,16.2
0.103000,839.6,89.2,1453.6,89.0,2510.2,211.1,844,1479,2533.2,156.3,73.4,17.4
0.105000,839.8,88.1,1453.8,89.3,2511.1,203.3,846.1,1482.1,2535,156.2,73.3,17.8
0.107000,840.1,85.6,1453.2,87.5,2508.3,201.2,848.3,1485.1,2536.8,156,73.2,17.1
0.109000,840.5,83.9,1452.2,86.1,2506.2,206.1,850.6,1488,2538.4,155.9,73,15.6
0.111000,840.2,82.6,1451.2,85.7,2511.6,212.3,853.1,1490.8,2539.9,155.7,72.8,13.8
0.113000,838.9,81.6,1450.7,88.4,2530.2,213.6,855.7,1493.4,2541.2,155.6,72.4,11.9
0.115000,837.4,83.0,1451.6,98.6,2559.7,195.1,858.4,1495.9,2542.5,155.5,71.8,10.2
0.117000,838.3,88.5,1458.0,116.3,2579.2,156.3,861.4,1498.3,2543.5,155.4,71,12
0.119000,842.6,94.2,1471.9,126.4,2579.8,132.3,864.5,1500.6,2544.5,155.3,70.1,16.9
0.121000,848.1,97.6,1485.2,124.9,2563.7,125.8,867.9,1502.7,2545.3,155.3,69,20.3
0.123000,854.5,102.7,1497.3,124.4,2541.0,117.2,871.5,1504.7,2546,155.2,67.7,17.4
0.125000,862.1,107.4,1512.4,125.0,2530.4,105.8,875.2,1506.7,2546.7,155.2,66.4,3.5
0.127000,865.4,105.6,1529.8,124.1,2533.2,105.0,879.3,1508.5,2547.2,155.1,64.9,-27.9
0.129000,862.5,100.0,1548.0,127.9,2543.5,127.3,883.5,1510.2,2547.7,0,63.6,-73.5
0.131000,861.8,99.3,1568.0,143.3,2557.0,189.9,888,1511.9,2548.1,0,62.3,-123.8
0.133000,870.6,108.9,1585.0,164.9,2564.0,278.4,892.7,1513.6,2548.5,0,61.1,-169.2
0.135000,890.7,129.6,1588.0,185.0,2557.6,320.1,897.5,1515.2,2548.9,0,60,-200
0.137000,919.0,153.2,1576.1,204.9,2549.0,307.5,902.6,1516.9,2549.4,0,59.1,-213
0.139000,940.2,161.8,1557.4,217.2,2543.0,280.1,907.9,1518.6,2550,0,58.2,-214.7
0.141000,946.3,157.4,1548.2,207.8,2543.4,251.5,913.3,1520.4,2550.7,0,57.4,-209.8
0.143000,945.8,164.0,1555.7,187.8,2555.5,230.1,918.9,1522.3,2551.5,0,56.7,-203.3
0.145000,946.9,196.0,1565.4,171.3,2576.4,225.7,924.6,1524.3,2552.5,0,56.1,-200
0.147000,963.3,242.7,1563.9,166.7,2603.5,245.1,930.3,1526.4,2553.7,0,55.7,-200
0.149000,1002.4,261.1,1549.4,177.5,2637.9,291.6,936.2,1528.6,2555.1,0,55.5,-200
0.151000,1038.3,246.6,1528.8,194.5,2666.9,355.9,942,1531.1,2556.8,0,55.6,-200
0.153000,1045.9,235.3,1508.5,203.4,2647.3,390.4,947.9,1533.7,2558.7,0,55.8,-200
0.155000,1019.7,224.0,1499.3,178.1,2586.8,326.8,953.7,1536.4,2560.9,0,56.2,-200
0.157000,976.3,197.0,1509.6,123.4,2549.7,237.9,959.4,1539.4,2563.5,0,56.6,-200
0.159000,938.6,170.3,1525.8,76.3,2536.0,186.9,965.1,1542.5,2566.4,0,57,-200
0.161000,917.4,156.8,1538.8,50.4,2531.8,172.6,970.6,1545.7,2569.6,0,57.3,-200
0.163000,914.7,156.5,1549.0,39.7,2533.2,183.7,975.9,1549.2,2573.1,0,57.4,-200
0.165000,931.5,163.8,1557.1,38.3,2541.3,206.4,981,1552.7,2577,0,57.2,-200
0.167000,965.3,170.9,1561.1,45.4,2555.5,225.9,985.8,1556.3,2581.1,0,57,-200
0.169000,1000.2,173.9,1556.0,61.1,2568.0,243.0,990.4,1560,2585.6,0,56.7,-200
0.171000,1011.5,168.0,1541.7,73.0,2573.7,268.1,994.6,1563.8,2590.4,0,56.6,-200
0.173000,999.4,141.3,1532.8,68.7,2577.0,293.4,998.5,1567.5,2595.5,0,56.6,-200
0.175000,986.2,108.6,1532.0,61.8,2582.7,308.6,1002,1571.2,2600.8,0,56.6,-200
0.177000,980.7,87.1,1532.6,60.8,2588.4,316.1,1005,1574.8,2606.3,0,56.6,-200
0.179000,981.9,78.8,1534.5,65.7,2587.7,324.1,1007.7,1578.2,2612,0,56.4,-200
0.181000,987.4,81.0,1542.9,73.8,2580.6,330.1,1009.8,1581.5,2617.8,0,56,-200
0.183000,993.8,90.4,1558.2,80.4,2584.1,314.4,1011.5,1584.4,2623.8,0,55.5,-200
0.185000,997.8,104.7,1570.9,85.8,2611.4,264.7,1012.6,1587.1,2629.8,0,54.8,-200
0.187000,999.9,123.4,1575.1,95.9,2643.5,202.9,1013.3,1589.4,2635.8,0,54,-200
0.189000,1001.6,145.6,1573.9,113.1,2662.5,156.3,1013.4,1591.3,2641.8,0,53.2,-200
0.191000,1003.1,167.1,1577.3,134.6,2669.0,132.9,1013,1592.7,2647.8,0,52.4,-200
0.193000,1003.3,174.7,1595.2,150.4,2665.8,133.6,1012,1593.6,2653.6,0,51.8,-200
0.195000,1000.1,155.3,1620.9,144.5,2651.6,162.9,1010.5,1594,2659.3,0,51.3,-200
0.197000,996.2,124.2,1633.1,126.7,2626.1,226.8,1008.5,1593.7,2664.7,0,51.1,-200
0.199000,994.6,101.5,1630.3,117.6,2605.2,332.5,1006,1592.8,2669.9,0,51,-200
0.201000,994.9,90.1,1621.7,119.5,2625.1,496.1,1002.9,1591.2,2674.8,0,50.9,-200
0.203000,995.5,85.7,1610.7,127.4,2704.7,665.3,999.4,1588.9,2679.4,0,50.7,-200
0.205000,993.8,87.0,1593.5,139.8,2758.1,633.1,995.4,1585.9,2683.7,0,50.4,-200
0.207000,989.9,94.7,1575.5,143.3,2737.3,437.1,990.9,1582.2,2687.5,0,50,-200
0.209000,984.1,102.7,1572.3,121.2,2714.7,285.1,986,1577.7,2691,0,49.5,-200
0.211000,973.1,104.9,1579.2,94.8,2703.5,207.3,980.7,1572.6,2694,0,49,-200
0.213000,954.1,106.6,1585.3,82.3,2699.3,177.3,975.1,1566.7,2696.6,0,48.4,-200
0.215000,931.4,114.7,1587.7,86.4,2701.8,182.0,969.2,1560.2,2698.8,0,47.8,-200
0.217000,918.0,130.5,1585.3,112.4,2712.4,215.7,962.9,1553.1,2700.5,0,47.2,-200
0.219000,928.8,149.3,1575.6,169.3,2724.3,263.6,956.5,1545.3,2701.8,0,46.4,-200
0.221000,959.6,158.9,1557.0,240.2,2721.1,290.9,949.8,1537,2702.7,0,45.5,-200
0.223000,987.5,160.7,1537.5,278.9,2706.6,281.9,943,1528.2,2703.1,0,44.6,-200
0.225000,995.0,180.0,1520.3,292.2,2695.9,275.9,936.1,1519,2703.1,0,43.8,-200
0.227000,980.1,228.4,1502.1,303.0,2686.1,296.9,929.1,1509.5,2702.8,0,43,-200
0.229000,960.6,286.8,1483.1,309.2,2669.7,327.5,922.1,1499.7,2702.2,0,42.3,-200
0.231000,955.9,339.6,1456.5,300.5,2645.4,340.6,915.2,1489.7,2701.2,0,41.7,-200
0.233000,963.8,380.2,1431.9,267.6,2627.5,337.9,908.4,1479.5,2699.9,0,41.4,-200
0.235000,976.9,400.1,1429.8,231.0,2635.3,356.6,901.6,1469.4,2698.5,0,41.2,-200
0.237000,985.1,406.1,1448.8,203.5,2675.6,404.5,895.1,1459.4,2696.8,0,41.3,-200
0.239000,973.8,419.9,1469.2,177.3,2723.8,434.3,888.8,1449.6,2695,0,41.5,-200
0.241000,943.5,458.8,1476.8,157.5,2750.5,433.1,882.8,1440,2693.1,0,41.9,-200
0.243000,900.2,523.8,1468.3,148.2,2761.0,430.6,877.1,1430.8,2691.1,0,42.3,-200
0.245000,848.7,610.4,1446.1,147.7,2777.6,441.9,871.7,1422,2689.2,0,42.5,-200
0.247000,799.6,710.6,1418.9,153.8,2818.0,455.0,866.7,1413.8,2687.3,0,42.6,-200
0.249000,771.3,796.9,1396.9,169.7,2867.3,472.1,862.2,1406.2,2685.4,0,42.5,-200
0.251000,785.0,843.1,1386.2,203.4,2896.8,538.9,858.1,1399.3,2683.7,0,42.3,-200
0.253000,834.9,798.5,1386.8,254.5,2891.0,713.0,854.5,1393.2,2682.1,0,41.9,-200
0.255000,862.2,659.6,1393.0,293.2,2788.9,963.7,851.4,1387.9,2680.7,0,41.1,-200
0.257000,855.4,536.7,1392.5,314.6,2620.3,1038.9,848.8,1383.5,2679.5,0,40.1,-200
0.259000,832.4,452.8,1381.4,324.9,2503.6,889.9,846.8,1380,2678.5,0,39.3,-200
0.261000,808.8,405.8,1366.2,320.3,2467.0,640.8,845.3,1377.5,2677.9,0,38.6,-200
0.263000,799.3,418.3,1355.5,326.2,2468.9,459.8,844.5,1376,2677.4,0,38.5,-200
0.265000,807.6,513.7,1344.3,366.5,2470.8,379.5,844.2,1375.5,2677.3,0,38.8,-200
