time,f1,b1,f2,b2,f3,b3,f1p,f2p,f3p,f0,intensity,harmonicity
0.025000,633.2,53.5,1700.5,320.3,2701.5,82.0,655.9,1682.9,2664.5,146.5,81.9,6.7
0.027000,640.0,55.8,1690.3,266.7,2691.1,80.6,656.7,1679.7,2668,146.2,81.5,6.5
0.029000,648.1,56.1,1683.6,234.6,2683.1,78.8,658.1,1674.5,2673.6,145.9,81,6.2
0.031000,657.9,52.9,1677.3,226.5,2680.2,78.1,660,1667.4,2681.2,145.5,80.6,5.9
0.033000,668.4,47.6,1668.3,240.0,2679.3,81.2,662.3,1658.4,2690.5,145.1,80.3,5.9
0.035000,676.5,42.6,1654.8,268.4,2676.4,90.9,665,1647.8,2701,144.8,79.9,6.2
0.037000,681.7,39.0,1632.5,286.0,2671.6,106.1,668.1,1635.8,2712.5,144.4,79.7,7.3
0.039000,684.9,37.2,1604.5,275.0,2670.3,131.3,671.4,1622.6,2724.4,144,79.5,9
0.041000,686.8,37.3,1584.6,250.5,2678.3,180.7,675,1608.5,2736.4,143.6,79.4,10.8
0.043000,688.8,38.3,1575.9,228.4,2705.2,268.9,678.6,1593.6,2747.9,143.2,79.2,12.5
0.045000,691.6,38.8,1569.9,212.2,2757.3,350.0,682.3,1578.4,2758.5,142.8,79.1,13.5
0.047000,693.8,38.2,1558.0,199.1,2806.1,359.8,686.1,1563.1,2767.9,142.4,79,13.7
0.049000,694.9,36.7,1542.2,183.9,2826.9,335.7,689.7,1547.8,2775.6,142,78.9,13.4
0.051000,696.0,35.2,1525.7,165.1,2831.0,316.6,693.3,1533,2781.4,141.6,78.8,12.9
0.053000,697.7,35.4,1508.4,148.3,2832.8,299.5,696.7,1518.9,2785,141.2,78.6,12.3
0.055000,698.2,38.3,1495.3,139.5,2834.1,281.2,700,1505.7,2786.2,140.9,78.4,11.9
0.057000,697.3,42.7,1488.9,138.5,2828.2,269.5,703,1493.5,2785.1,140.5,78.1,11.7
0.059000,697.1,47.7,1485.0,145.0,2810.0,267.4,705.9,1482.7,2781.6,140.2,77.8,11.6
0.061000,697.7,54.0,1479.2,155.4,2781.5,262.0,708.5,1473.2,2775.7,139.9,77.3,11.5
0.063000,696.9,61.9,1473.6,161.5,2751.1,237.7,710.9,1465.3,2767.8,139.6,76.9,11.4
0.065000,695.7,70.5,1471.9,161.3,2730.0,204.0,713.2,1459,2757.9,139.4,76.3,11.2
0.067000,697.7,83.3,1470.3,167.8,2715.0,175.1,715.2,1454.4,2746.5,139.1,75.8,10.9
0.069000,703.3,108.0,1465.4,189.9,2701.5,154.6,717,1451.4,2733.8,138.9,75.2,10.4
0.071000,709.5,145.4,1460.5,218.4,2689.5,143.1,718.7,1450,2720.3,138.7,74.7,10
0.073000,716.2,189.6,1456.3,240.5,2678.6,137.6,720.1,1450.2,2706.3,138.5,74.2,9.7
0.075000,723.6,224.3,1452.6,248.0,2670.2,136.9,721.4,1451.7,2692.2,138.4,73.9,9.7
0.077000,729.2,243.1,1452.1,242.7,2663.9,137.5,722.5,1454.6,2678.4,138.3,73.7,10.2
0.079000,732.9,243.9,1457.7,234.0,2657.5,134.8,723.3,1458.6,2665.3,138.2,73.5,11.3
0.081000,737.6,231.0,1465.7,236.4,2651.0,131.0,723.9,1463.6,2653.2,138.1,73.5,12.4
0.083000,742.9,220.7,1471.5,262.3,2643.8,129.9,724.2,1469.3,2642.3,138.1,73.4,13.1
0.085000,745.5,223.7,1473.9,308.9,2636.0,130.0,724.2,1475.7,2632.9,138.1,73.3,13.1
0.087000,744.2,228.2,1479.9,351.1,2628.3,127.7,723.7,1482.4,2625.1,138.1,73.1,12
0.089000,740.3,222.4,1494.7,369.1,2621.3,124.8,722.9,1489.3,2618.9,138.1,73,10
0.091000,735.7,222.1,1508.0,370.0,2615.3,122.4,721.6,1496.1,2614.5,138.1,72.8,7.7
0.093000,732.0,248.8,1509.1,359.6,2611.2,116.4,719.7,1502.8,2611.7,138.2,72.6,5.7
0.095000,730.4,302.3,1498.1,332.9,2611.2,106.8,717.4,1509.1,2610.5,138.2,72.4,4.6
0.097000,727.5,360.7,1488.0,296.4,2616.2,99.9,714.4,1514.9,2610.6,138.3,72.2,4.7
0.099000,716.2,408.1,1488.6,263.0,2626.2,98.8,711,1520.2,2611.8,138.4,72,5.7
0.101000,694.0,442.4,1498.0,234.4,2637.3,100.5,707,1524.7,2614,138.5,71.8,6.9
0.103000,665.0,456.1,1511.1,202.6,2645.9,102.4,702.5,1528.5,2616.8,138.6,71.7,8
0.105000,641.8,436.0,1524.2,171.3,2650.4,105.4,697.6,1531.5,2620.1,138.7,71.6,8.4
0.107000,631.7,386.2,1537.3,147.5,2650.8,109.1,692.4,1533.7,2623.5,138.8,71.6,7.9
0.109000,635.5,311.7,1548.4,134.0,2645.6,111.5,687,1535.2,2626.9,138.9,71.7,6.8
0.111000,648.2,235.1,1554.0,132.3,2637.6,116.0,681.6,1536,2629.9,138.9,72,5.4
0.113000,664.4,176.9,1553.7,145.9,2631.9,131.7,676.4,1536.3,2632.6,139,72.2,4.3
0.115000,679.9,143.6,1550.2,175.9,2633.3,162.3,671.5,1536.1,2634.7,139.1,72.6,3.7
0.117000,691.9,123.0,1548.0,218.1,2638.7,203.6,667.2,1535.5,2636.2,139.1,72.9,3.9
0.119000,699.2,107.0,1549.6,274.0,2635.0,255.8,663.6,1534.7,2637.1,139.2,73.2,4.6
0.121000,703.4,94.6,1555.6,348.3,2612.6,319.6,661.2,1533.9,2637.4,139.2,73.4,5.6
0.123000,706.4,84.0,1559.5,431.1,2575.2,379.1,659.9,1533.3,2637.3,139.2,73.6,6.5
0.125000,707.6,76.3,1549.8,462.9,2561.2,398.6,660.2,1532.9,2636.8,139.2,73.7,7.1
0.127000,706.8,71.7,1530.2,417.1,2594.8,371.6,662.2,1532.9,2636.1,139.2,73.7,7.4
0.129000,704.7,68.8,1513.9,342.7,2637.7,300.4,666,1533.4,2635.5,139.2,73.6,7.6
0.131000,701.0,67.0,1501.6,279.0,2647.5,238.2,671.9,1534.7,2635.1,139.2,73.3,7.6
0.133000,693.2,70.2,1496.7,232.2,2640.7,211.0,679.9,1536.7,2635.1,139.2,72.9,7.5
0.135000,679.9,84.3,1504.4,203.0,2638.4,206.3,690.1,1539.6,2635.8,139.2,72.4,7.1
0.137000,665.5,107.3,1520.9,184.7,2645.5,198.8,702.6,1543.3,2637.4,139.1,71.7,6.3
0.139000,660.5,134.7,1543.6,177.7,2656.4,175.9,717.2,1548,2640,139.1,70.9,5
0.141000,668.0,169.4,1571.5,175.1,2664.1,150.1,733.8,1553.6,2643.8,139,70,3.6
0.143000,684.6,229.2,1597.9,151.8,2666.5,131.6,752.4,1560,2648.8,139,69.1,2.5
0.145000,706.2,340.7,1603.1,100.6,2661.3,128.5,772.7,1567.3,2655.1,0,68.4,1.9
0.147000,738.9,501.3,1595.0,58.7,2651.2,147.6,794.4,1575.2,2662.5,0,67.9,5.4
0.149000,802.5,597.8,1589.0,38.5,2649.3,186.4,817.2,1583.7,2671.2,0,67.7,12.8
0.151000,880.6,568.0,1587.7,31.1,2676.3,216.7,840.7,1592.6,2680.8,0,67.8,18.7
0.153000,935.8,480.5,1589.8,28.7,2725.0,209.1,864.6,1601.8,2691.1,0,68,18.1
0.155000,956.9,413.5,1594.4,30.9,2758.9,182.0,888.5,1611.1,2702.1,0,68,5.5
0.157000,963.0,384.0,1601.6,39.5,2767.3,164.1,911.8,1620.2,2713.3,0,67.9,-25.5
0.159000,967.5,378.2,1613.3,56.3,2757.1,157.3,934.1,1629,2724.5,0,67.5,-71.5
0.161000,974.2,383.3,1629.8,78.0,2741.9,153.3,955.1,1637.4,2735.4,0,67.1,-122.5
0.163000,983.5,395.7,1647.0,97.9,2730.8,148.8,974.2,1645,2745.6,0,66.4,-168.7
0.165000,997.2,416.3,1657.3,112.6,2729.0,144.9,991.1,1651.8,2754.9,0,65.7,-200
0.167000,1009.4,427.2,1663.0,123.1,2734.0,142.9,1005.5,1657.6,2762.9,0,65.1,-213.2
0.169000,1008.7,418.0,1667.9,123.6,2740.8,144.4,1017,1662.3,2769.4,0,64.3,-214.8
0.171000,997.4,403.5,1670.6,114.4,2748.6,152.5,1025.4,1665.7,2774.2,0,63.6,-209.9
0.173000,990.7,389.7,1671.4,106.8,2761.5,174.7,1030.5,1667.8,2777.1,0,62.9,-203.3
0.175000,1007.3,370.0,1673.6,112.8,2783.3,214.2,1032.2,1668.4,2778.1,0,62.1,-200
