time,f1,b1,f2,b2,f3,b3,f1p,f2p,f3p,f0,intensity,harmonicity
0.025000,692.5,94.3,1619.6,744.0,2265.4,152.4,694.2,1425.7,2277.8,151.8,75.6,8.7
0.027000,690.8,90.5,1504.1,538.6,2260.6,121.7,694.9,1426.4,2278.7,151.5,75.6,8
0.029000,688.7,85.1,1439.6,313.9,2258.8,107.3,696.1,1427.6,2280.2,151.1,75.5,6.9
0.031000,691.1,82.0,1422.0,211.0,2261.1,120.4,697.7,1429.2,2282.2,150.8,75.4,5.6
0.033000,697.4,82.8,1422.1,181.6,2268.6,157.8,699.7,1431.3,2284.8,150.4,75.3,4.4
0.035000,703.7,84.7,1425.5,193.9,2275.2,193.0,702.1,1433.7,2288,150,75.2,3.3
0.037000,708.0,85.3,1425.2,226.2,2275.1,209.2,704.9,1436.5,2291.6,149.6,75,2.3
0.039000,710.9,83.6,1421.7,254.2,2273.5,215.1,708,1439.6,2295.6,149.1,74.9,1.2
0.041000,713.9,82.3,1419.3,261.7,2279.0,227.6,711.4,1442.8,2300.1,148.7,74.8,0.3
0.043000,719.1,84.7,1420.0,261.3,2299.0,256.7,715.2,1446.3,2305,148.3,74.7,-0.1
0.045000,726.2,88.8,1425.9,257.6,2333.1,268.5,719.1,1449.8,2310.1,147.9,74.6,0.3
0.047000,732.2,91.0,1431.8,244.5,2359.4,232.7,723.2,1453.4,2315.6,147.5,74.6,1.9
0.049000,734.8,92.5,1431.3,226.8,2367.5,186.0,727.5,1456.9,2321.3,147,74.6,4.6
0.051000,735.2,93.7,1429.4,211.7,2366.4,158.0,731.9,1460.3,2327.1,146.6,74.7,7.7
0.053000,736.1,93.1,1430.7,203.2,2363.1,143.9,736.3,1463.5,2333.1,146.2,74.7,10.4
0.055000,738.3,91.9,1434.1,209.4,2361.2,139.8,740.7,1466.4,2339.1,145.8,74.8,12.2
0.057000,742.0,92.1,1437.6,233.0,2361.6,141.2,745.1,1469,2345.1,145.4,74.8,12.7
0.059000,747.2,92.8,1440.7,265.9,2363.6,143.9,749.5,1471.3,2351.1,145.1,74.8,12.4
0.061000,752.3,93.5,1444.0,292.4,2365.7,147.6,753.7,1473.1,2357,144.7,74.8,11.7
0.063000,758.2,96.3,1447.5,316.9,2368.3,156.3,757.8,1474.4,2362.7,144.4,74.8,11.1
0.065000,763.4,99.3,1448.1,336.7,2370.8,167.7,761.6,1475.1,2368.3,144,74.7,11
0.067000,766.4,98.8,1445.8,338.6,2371.4,171.6,765.3,1475.3,2373.7,143.7,74.6,11.5
0.069000,768.8,95.9,1446.0,313.5,2368.8,160.9,768.7,1474.9,2378.8,143.5,74.5,12.4
0.071000,772.0,93.3,1449.4,273.9,2363.4,144.7,771.9,1473.8,2383.6,143.2,74.3,13.5
0.073000,775.4,89.6,1454.4,235.0,2358.3,136.2,774.7,1472.1,2388.1,142.9,74.2,14.5
0.075000,777.2,86.0,1463.6,210.8,2361.1,141.9,777.3,1469.7,2392.3,142.7,74,15.5
0.077000,778.8,84.9,1478.4,198.2,2375.3,152.0,779.6,1466.7,2396.2,142.5,73.9,16.3
0.079000,781.4,85.1,1493.2,190.9,2394.9,153.5,781.5,1463.1,2399.6,142.4,73.7,17.2
0.081000,783.4,83.6,1499.4,187.5,2407.4,149.9,783.2,1458.9,2402.7,142.2,73.5,18.1
0.083000,784.1,81.2,1496.4,187.0,2413.1,150.9,784.5,1454.1,2405.5,142.1,73.4,18.7
0.085000,783.4,81.2,1485.7,195.4,2416.9,165.3,785.6,1448.8,2407.9,142,73.2,19
0.087000,781.5,82.7,1470.1,215.8,2422.6,191.6,786.4,1443.1,2409.9,141.9,73,19
0.089000,779.6,82.8,1457.1,239.0,2431.7,211.6,786.9,1436.9,2411.6,141.8,72.8,18.8
0.091000,779.7,82.8,1455.3,253.3,2443.8,205.9,787.3,1430.4,2413,141.8,72.6,18.3
0.093000,780.6,85.3,1457.8,269.5,2454.0,184.3,787.4,1423.6,2414,141.8,72.4,17.6
0.095000,780.2,89.2,1454.1,291.4,2452.1,167.2,787.4,1416.7,2414.8,141.8,72.2,16.6
0.097000,778.9,92.6,1444.1,306.1,2437.5,154.6,787.2,1409.6,2415.4,141.9,72,15.3
0.099000,777.0,97.0,1427.6,306.3,2415.1,143.6,787,1402.5,2415.7,141.9,71.8,13.4
0.101000,774.8,101.5,1406.8,290.4,2394.7,132.7,786.7,1395.5,2415.8,142,71.7,11.4
0.103000,775.4,104.8,1390.1,257.8,2381.8,114.2,786.4,1388.6,2415.8,142.1,71.7,9.8
0.105000,780.9,109.7,1382.3,226.4,2379.2,92.7,786.2,1381.9,2415.6,142.2,71.7,8.8
0.107000,787.8,117.1,1377.1,207.8,2381.8,77.6,786,1375.6,2415.4,142.4,71.7,8.7
0.109000,792.1,121.7,1371.4,200.5,2386.3,69.8,786,1369.7,2415.1,142.5,71.8,9.1
0.111000,795.0,120.5,1366.4,198.8,2391.2,65.3,786.1,1364.2,2414.8,142.7,71.8,9.9
0.113000,799.7,115.2,1361.6,198.2,2397.0,60.6,786.4,1359.4,2414.5,142.9,71.8,10.8
0.115000,803.8,108.4,1357.5,197.0,2401.7,56.8,786.9,1355.1,2414.2,143.1,71.7,11.3
0.117000,806.0,103.9,1356.3,202.5,2402.8,56.8,787.7,1351.5,2414,143.3,71.7,11.6
0.119000,807.7,106.0,1356.7,227.9,2400.0,64.1,788.9,1348.7,2413.9,143.6,71.6,11.7
0.121000,809.0,114.3,1350.1,270.0,2395.8,81.1,790.4,1346.7,2413.9,143.8,71.6,11.9
0.123000,807.5,125.6,1328.4,304.0,2392.8,109.6,792.2,1345.5,2414.1,144.1,71.6,12
0.125000,803.8,135.7,1299.3,305.9,2393.9,147.5,794.4,1345.2,2414.4,144.4,71.6,12.4
0.127000,801.7,143.8,1275.4,292.1,2400.1,202.4,797.1,1345.8,2414.9,144.7,71.6,13.1
0.129000,803.3,145.9,1269.1,279.5,2410.7,277.0,800.1,1347.3,2415.6,145,71.6,14.1
0.131000,807.2,139.8,1284.1,266.5,2422.4,336.2,803.6,1349.6,2416.5,145.3,71.6,15.1
0.133000,812.0,128.7,1309.4,239.0,2434.5,353.0,807.6,1352.9,2417.6,145.6,71.6,15.8
0.135000,815.9,117.6,1326.7,204.9,2442.0,337.1,811.9,1357,2418.9,145.9,71.6,15.9
0.137000,818.0,108.9,1336.2,180.3,2444.5,321.7,816.8,1362,2420.5,146.2,71.4,15.1
0.139000,819.6,104.7,1347.9,169.4,2443.6,324.9,822,1367.8,2422.3,146.5,71.3,13.6
0.141000,822.3,105.5,1366.9,167.4,2443.3,353.7,827.6,1374.3,2424.3,146.8,71.1,11.8
0.143000,826.9,108.6,1392.2,168.2,2451.2,402.0,833.7,1381.6,2426.5,147.1,70.9,10.1
0.145000,832.8,108.5,1418.7,167.4,2464.8,420.5,840.2,1389.5,2428.9,147.4,70.7,9
0.147000,839.6,101.7,1445.0,158.6,2468.6,382.8,847,1398,2431.6,147.7,70.5,8.4
0.149000,845.0,91.8,1465.8,141.8,2466.5,323.1,854.1,1407,2434.4,147.9,70.2,8.1
0.151000,847.5,85.6,1475.0,125.7,2467.5,277.4,861.5,1416.5,2437.4,148.2,69.8,8
0.153000,848.6,84.3,1476.1,112.8,2471.7,239.7,869.2,1426.3,2440.6,148.4,69.2,8
0.155000,850.5,88.8,1472.4,107.0,2474.2,207.8,877.2,1436.4,2444,148.6,68.5,7.8
0.157000,856.8,97.4,1466.1,109.8,2469.1,181.8,885.3,1446.6,2447.6,148.7,67.8,7.6
0.159000,872.2,101.7,1463.0,122.8,2460.3,164.2,893.6,1457,2451.3,148.8,67,7.3
0.161000,889.7,94.9,1472.4,138.1,2457.2,151.2,902,1467.4,2455.1,148.9,66.4,7
0.163000,902.0,85.5,1491.7,140.1,2450.9,128.0,910.6,1477.7,2459.1,148.9,65.9,6.8
0.165000,908.9,85.3,1504.4,123.3,2437.0,99.1,919.1,1487.8,2463.3,148.9,65.6,6.7
0.167000,915.2,96.7,1507.5,104.3,2425.5,78.1,927.7,1497.7,2467.5,148.9,65.3,10
0.169000,923.4,121.2,1505.2,94.9,2422.2,69.0,936.2,1507.3,2471.9,148.8,65,16.7
0.171000,933.0,158.0,1500.3,97.3,2427.1,71.2,944.7,1516.4,2476.4,148.6,64.6,21.9
0.173000,944.6,215.8,1492.4,111.0,2440.2,87.4,953.1,1525.2,2481,148.5,64.1,20.4
0.175000,959.6,289.3,1484.4,131.2,2459.9,120.4,961.3,1533.3,2485.7,148.2,63.6,7.3
0.177000,984.4,351.6,1485.1,155.1,2481.6,168.7,969.3,1540.9,2490.5,148,63,-24.2
0.179000,1016.2,350.9,1505.7,187.3,2497.8,218.5,977.2,1547.9,2495.4,147.7,62.5,-70.6
0.181000,1032.2,295.8,1542.3,216.2,2507.5,253.9,984.8,1554.2,2500.4,147.4,61.9,-122
0.183000,1033.4,244.2,1578.5,225.6,2519.1,278.2,992.2,1559.8,2505.5,147,61.4,-168.5
0.185000,1031.6,227.0,1591.2,208.0,2529.4,269.8,999.3,1564.6,2510.7,146.6,60.8,-200
0.187000,1033.3,232.9,1582.9,172.7,2530.1,218.8,1006.1,1568.6,2516,146.2,60.3,-213.3
0.189000,1042.2,231.5,1572.7,136.3,2525.4,154.7,1012.6,1571.9,2521.4,145.8,59.8,-214.9
0.191000,1053.5,204.5,1572.9,114.8,2525.8,114.5,1018.7,1574.4,2526.9,145.4,59.4,-209.9
0.193000,1058.5,165.0,1583.5,107.5,2532.9,96.0,1024.6,1576.1,2532.5,145,58.9,-203.3
0.195000,1054.5,133.7,1599.1,113.1,2541.5,93.3,1030.1,1577,2538.2,144.5,58.5,-200
0.197000,1046.3,114.1,1613.0,129.7,2547.5,102.5,1035.2,1577.2,2543.9,144.1,58.2,-200
0.199000,1038.2,108.0,1613.8,152.4,2547.0,129.7,1040,1576.6,2549.8,143.7,58,-200
0.201000,1031.8,110.2,1597.9,163.2,2534.1,183.3,1044.4,1575.4,2555.7,0,57.8,-200
0.203000,1026.1,105.6,1580.9,158.6,2499.3,265.2,1048.5,1573.4,2561.7,0,57.8,-200
0.205000,1021.9,92.6,1573.3,152.5,2465.0,321.8,1052.3,1570.9,2567.7,0,57.9,-200
0.207000,1019.6,80.7,1569.3,149.1,2472.8,341.2,1055.7,1567.7,2573.8,0,58,-200
0.209000,1020.3,77.2,1554.6,138.9,2519.5,349.4,1058.8,1564,2579.8,0,58.1,-200
0.211000,1026.2,86.2,1527.3,111.7,2577.2,348.2,1061.6,1559.9,2585.9,0,58.2,-200
0.213000,1038.6,107.4,1506.3,82.5,2633.9,321.3,1064.1,1555.3,2592,0,58.3,-200
0.215000,1052.7,128.1,1499.5,67.1,2667.3,281.9,1066.3,1550.4,2598.1,0,58.4,-200
0.217000,1059.1,123.0,1502.4,58.8,2677.0,252.7,1068.2,1545.2,2604,0,58.4,-200
0.219000,1054.6,90.2,1514.2,52.9,2670.0,235.7,1069.9,1539.7,2609.9,0,58.4,-200
0.221000,1047.2,62.2,1530.7,48.6,2657.8,228.1,1071.4,1534.1,2615.8,0,58.3,-200
0.223000,1042.5,46.7,1545.3,45.3,2647.3,241.9,1072.7,1528.4,2621.4,0,58.2,-200
0.225000,1044.0,42.8,1549.7,45.8,2642.7,300.7,1073.7,1522.6,2627,0,57.9,-200
0.227000,1052.7,48.4,1543.6,52.2,2648.1,440.8,1074.6,1516.9,2632.3,0,57.5,-200
0.229000,1069.3,64.9,1529.6,61.1,2676.3,689.0,1075.4,1511.2,2637.4,0,57.2,-200
0.231000,1090.9,87.8,1516.6,59.8,2747.0,800.0,1076,1505.7,2642.3,0,56.9,-200
0.233000,1115.4,106.8,1507.5,48.7,2786.2,657.2,1076.4,1500.4,2646.9,0,56.6,-200
0.235000,1131.2,111.9,1498.7,38.5,2780.9,590.4,1076.8,1495.4,2651.2,0,56.5,-200
0.237000,1132.6,109.7,1487.0,31.9,2746.6,621.8,1077.1,1490.7,2655.2,0,56.4,-200
0.239000,1116.3,109.4,1473.0,28.9,2673.2,679.7,1077.3,1486.4,2658.9,0,56.2,-200
0.241000,1090.4,107.4,1461.5,28.8,2605.1,682.6,1077.5,1482.4,2662.1,0,56,-200
0.243000,1071.0,97.8,1454.8,31.7,2581.3,636.8,1077.6,1478.9,2665,0,55.5,-200
0.245000,1066.6,85.9,1453.8,38.4,2599.1,590.2,1077.7,1475.9,2667.5,0,54.9,-200
0.247000,1069.1,77.8,1457.8,51.7,2627.2,580.4,1077.7,1473.4,2669.6,0,54.1,-200
0.249000,1072.7,78.6,1470.6,81.0,2642.2,656.1,1077.7,1471.4,2671.2,0,53.2,-200
0.251000,1074.0,89.0,1493.7,128.7,2631.5,831.2,1077.7,1470,2672.3,0,52,-200
0.253000,1072.1,110.3,1511.4,178.9,2593.1,1034.4,1077.8,1469.1,2673,0,50.8,-200
0.255000,1069.2,136.7,1498.6,202.9,2557.9,1093.7,1077.8,1468.8,2673.3,0,49.6,-200
