time,f1,b1,f2,b2,f3,b3,f1p,f2p,f3p,f0,intensity,harmonicity
0.025000,734.5,162.6,1583.1,106.4,2181.9,152.6,715.5,1587.8,2159.8,170.4,71.9,8.4
0.027000,739.0,163.1,1580.2,104.1,2179.9,142.8,717.4,1586.9,2160.4,170.1,71.9,9.1
0.029000,743.4,164.8,1578.0,102.9,2177.4,132.3,720.6,1585.4,2161.3,169.8,71.9,9.9
0.031000,747.1,167.3,1576.7,104.5,2177.5,125.0,724.9,1583.3,2162.6,169.5,71.9,10.8
0.033000,750.4,170.1,1575.9,109.1,2179.3,120.3,730.1,1580.7,2164.2,169.2,71.9,11.6
0.035000,753.5,172.4,1576.0,114.2,2181.0,117.7,736.3,1577.6,2166.2,168.9,71.9,12.2
0.037000,757.0,173.4,1576.3,117.7,2181.1,117.2,743,1574,2168.4,168.5,71.9,12.6
0.039000,760.6,172.3,1575.6,118.6,2179.0,118.8,750.3,1570,2170.8,168.2,71.8,12.7
0.041000,763.0,167.2,1572.4,116.2,2175.0,120.9,757.7,1565.6,2173.5,167.8,71.7,12.8
0.043000,764.1,158.1,1565.9,111.4,2169.4,122.8,765.2,1561,2176.4,167.4,71.6,13
0.045000,764.4,148.6,1557.4,106.5,2163.3,125.5,772.4,1556.1,2179.4,167.1,71.5,13.3
0.047000,764.0,142.1,1549.4,103.3,2159.7,129.7,779.3,1551.1,2182.6,166.7,71.4,13.8
0.049000,763.1,139.4,1543.3,102.4,2160.8,135.1,785.4,1546,2185.9,166.3,71.2,14.6
0.051000,762.0,138.7,1538.3,103.3,2164.5,140.4,790.7,1540.8,2189.2,166,71.1,15.4
0.053000,762.0,140.5,1535.1,105.9,2169.9,146.9,795,1535.8,2192.6,165.6,71,16.1
0.055000,763.8,145.5,1534.3,109.1,2176.6,155.3,798.2,1530.9,2196,165.2,70.9,16.6
0.057000,766.2,150.9,1534.3,111.2,2183.2,165.0,800.1,1526.1,2199.5,164.9,70.7,16.7
0.059000,767.5,151.3,1533.0,110.6,2187.5,172.1,800.7,1521.7,2203,164.5,70.6,16.6
0.061000,766.4,144.5,1529.0,108.2,2188.9,174.6,800,1517.7,2206.5,164.1,70.4,16.4
0.063000,764.1,134.2,1522.4,106.7,2189.1,176.9,797.9,1514,2210,163.8,70.2,16.1
0.065000,762.5,126.6,1515.9,108.1,2191.6,182.7,794.5,1510.8,2213.6,163.4,70,15.8
0.067000,762.5,123.3,1512.6,110.5,2199.3,188.7,790,1508.2,2217.3,163.1,69.7,15.6
0.069000,764.4,121.9,1513.6,110.9,2210.5,186.8,784.4,1506.1,2221,162.7,69.5,15.3
0.071000,767.6,120.4,1517.3,109.1,2220.6,174.6,777.8,1504.6,2224.8,162.4,69.2,15
0.073000,771.4,118.8,1521.3,108.0,2229.4,157.6,770.6,1503.8,2228.8,162.1,69,14.6
0.075000,774.8,117.7,1522.3,112.7,2238.3,145.7,762.9,1503.6,2232.9,161.7,68.6,14.3
0.077000,776.7,116.4,1517.4,126.2,2247.5,142.7,754.9,1504.2,2237.2,161.4,68.2,13.9
0.079000,776.1,114.8,1504.5,146.2,2255.9,147.2,746.9,1505.4,2241.6,161.1,67.7,13.5
0.081000,773.5,114.8,1484.5,167.0,2264.7,158.0,739.1,1507.3,2246.3,160.8,67.2,13
0.083000,769.9,117.6,1459.8,188.0,2278.7,180.8,731.8,1509.9,2251.3,160.4,66.6,12.7
0.085000,766.6,122.6,1440.3,212.2,2298.7,226.9,725.2,1513.2,2256.4,160.1,66,12.4
0.087000,763.6,130.2,1431.0,257.6,2315.1,316.4,719.6,1517.1,2261.8,159.8,65.3,12.5
0.089000,761.5,142.1,1427.1,357.8,2306.4,469.9,715.1,1521.6,2267.5,159.5,64.7,12.7
0.091000,765.5,156.2,1432.1,543.2,2265.1,652.9,712,1526.7,2273.4,159.1,64.1,12.9
0.093000,779.1,161.4,1516.8,825.6,2236.7,870.2,710.4,1532.3,2279.5,158.8,63.6,13.1
0.095000,790.2,148.7,1707.5,775.5,2337.3,1155.9,710.4,1538.3,2285.8,158.5,63,12.9
0.097000,788.3,142.4,1728.7,603.8,2442.4,1183.7,712,1544.8,2292.3,158.2,62.5,12.4
0.099000,771.3,158.3,1675.2,514.8,2392.0,1049.5,715.4,1551.6,2298.9,157.9,62,11.6
0.101000,738.7,178.5,1601.1,392.5,2315.6,761.4,720.6,1558.7,2305.6,157.6,61.4,10.7
0.103000,698.1,188.3,1567.1,249.4,2282.4,514.2,727.4,1566,2312.3,157.2,60.9,9.9
0.105000,663.2,191.5,1563.0,164.9,2265.3,370.1,735.9,1573.5,2319,156.9,60.3,9.3
0.107000,643.4,196.5,1565.9,129.6,2255.2,289.1,745.9,1581,2325.6,156.6,59.8,12.5
0.109000,641.4,208.3,1567.5,127.3,2252.3,252.5,757.2,1588.6,2332.1,156.3,59.4,19.1
0.111000,651.5,227.8,1565.2,150.7,2254.6,254.3,769.7,1596.1,2338.3,156,58.9,24.2
0.113000,669.3,259.7,1556.8,198.3,2256.6,295.2,783.1,1603.4,2344.4,155.7,58.6,22.6
0.115000,698.2,303.5,1548.3,248.4,2255.4,381.7,797.4,1610.6,2350.1,155.4,58.2,9.3
0.117000,747.9,346.2,1556.7,278.5,2270.5,524.2,812.1,1617.6,2355.5,155.1,57.9,-22.5
0.119000,815.8,357.1,1582.3,283.5,2345.5,627.5,827.2,1624.2,2360.5,154.8,57.6,-69.4
0.121000,865.7,325.6,1598.4,281.6,2407.5,524.5,842.3,1630.5,2365.1,154.5,57.2,-121.3
0.123000,889.7,293.8,1604.7,307.3,2412.3,364.5,857.2,1636.4,2369.3,154.3,56.7,-168.2
0.125000,904.0,287.6,1618.2,356.0,2405.2,259.8,871.7,1641.9,2373.1,154,56.2,-200
0.127000,920.6,313.9,1653.0,397.1,2405.2,219.1,885.6,1647,2376.3,153.8,55.5,-213.4
0.129000,944.5,379.0,1703.2,397.2,2413.3,232.1,898.8,1651.6,2379.2,153.5,54.7,-215.1
0.131000,973.7,456.2,1747.1,359.8,2427.1,288.9,911,1655.6,2381.7,153.3,53.9,-210
0.133000,989.3,503.5,1761.1,302.1,2436.2,372.0,922.1,1659.2,2383.8,153.1,53.2,-203.3
0.135000,983.6,510.2,1731.3,253.0,2415.1,429.5,932,1662.3,2385.5,0,52.7,-200
0.137000,974.6,480.2,1686.3,201.6,2380.3,429.4,940.8,1664.9,2387,0,52.3,-200
0.139000,965.4,421.2,1653.6,151.2,2359.3,408.0,948.3,1667,2388.3,0,51.9,-200
0.141000,958.4,345.2,1638.7,116.3,2354.6,394.1,954.6,1668.6,2389.5,0,51.6,-200
0.143000,955.0,263.5,1636.6,96.7,2368.6,393.9,959.7,1669.8,2390.6,0,51.1,-200
0.145000,951.4,196.4,1642.7,89.4,2400.7,384.3,963.6,1670.5,2391.7,0,50.5,-200
0.147000,945.4,152.2,1652.7,91.5,2434.7,326.2,966.6,1670.8,2393,0,49.9,-200
0.149000,940.9,132.3,1666.4,106.8,2451.5,250.6,968.6,1670.8,2394.4,0,49,-200
0.151000,943.7,136.4,1682.9,139.7,2450.4,207.6,969.9,1670.4,2396.1,0,48.2,-200
0.153000,958.6,164.9,1689.7,175.7,2433.9,197.2,970.5,1669.7,2398.1,0,47.6,-200
0.155000,980.1,202.5,1672.1,170.9,2406.1,195.9,970.7,1668.8,2400.6,0,47.2,-200
0.157000,997.0,220.2,1650.7,136.6,2383.3,186.4,970.5,1667.6,2403.5,0,47,-200
0.159000,1009.3,219.7,1638.5,104.6,2380.2,174.5,970.3,1666.2,2406.9,0,47,-200
0.161000,1017.7,216.7,1633.7,82.9,2394.1,168.5,970,1664.7,2410.9,0,47,-200
0.163000,1017.7,213.1,1632.0,65.6,2414.9,166.3,969.9,1663,2415.4,0,47,-200
0.165000,1005.9,200.3,1630.4,50.8,2431.8,155.7,970,1661.3,2420.5,0,47,-200
0.167000,988.3,180.1,1628.8,40.0,2438.4,131.4,970.5,1659.5,2426.2,0,46.8,-200
0.169000,972.3,169.2,1630.5,35.1,2435.3,109.6,971.5,1657.7,2432.4,0,46.6,-200
0.171000,961.8,182.4,1638.3,36.0,2428.6,105.7,973,1655.8,2439,0,46.3,-200
0.173000,953.8,223.2,1652.8,40.7,2421.8,121.1,975,1654.1,2446.1,0,45.9,-200
0.175000,941.4,268.8,1667.3,44.8,2415.9,144.7,977.5,1652.3,2453.6,0,45.5,-200
0.177000,923.4,287.1,1675.3,47.4,2412.3,162.2,980.6,1650.6,2461.3,0,44.9,-200
0.179000,911.1,277.3,1676.3,52.3,2414.0,173.2,984.1,1649,2469.2,0,44.4,-200
0.181000,912.2,257.0,1673.8,62.7,2423.3,182.6,988.1,1647.5,2477.1,0,43.7,-200
0.183000,926.0,235.5,1672.5,82.9,2441.7,197.0,992.3,1646.1,2485,0,42.9,-200
0.185000,945.9,220.2,1679.4,117.1,2467.8,228.0,996.7,1644.8,2492.7,0,41.9,-200
0.187000,962.8,216.8,1699.4,165.6,2501.3,293.6,1001.3,1643.6,2500.2,0,40.7,-200
0.189000,969.8,231.0,1725.0,215.4,2535.8,395.9,1005.8,1642.6,2507.2,0,39.6,-200
0.191000,969.0,269.3,1734.1,248.8,2552.2,488.7,1010.2,1641.6,2513.8,0,38.4,-200
0.193000,974.6,342.3,1710.5,265.6,2544.8,527.5,1014.2,1640.8,2519.7,0,37.5,-200
0.195000,999.4,433.9,1663.2,264.7,2534.7,515.4,1017.9,1640.2,2524.8,0,36.8,-200
0.197000,1033.9,520.2,1618.5,254.1,2536.4,506.4,1021.1,1639.6,2529.2,0,36.4,-200
0.199000,1062.0,623.2,1585.7,248.4,2544.2,547.0,1023.7,1639.2,2532.7,0,36.1,-200
0.201000,1088.2,769.0,1564.6,255.6,2556.0,659.0,1025.5,1638.9,2535.2,0,35.8,-200
0.203000,1134.5,957.2,1552.8,279.4,2571.7,843.2,1026.7,1638.7,2536.8,0,35.4,-200
0.205000,1165.9,1081.3,1550.4,304.7,2551.3,976.4,1027.1,1638.6,2537.3,0,34.8,-200
