time,f1,b1,f2,b2,f3,b3,f1p,f2p,f3p,f0,intensity,harmonicity
0.025000,736.1,297.3,1550.9,91.6,2221.2,123.4,885.1,1562.7,2245.6,159.7,77.4,3.6
0.027000,772.4,350.9,1544.1,90.7,2227.3,135.3,886.1,1560.8,2245.4,159.6,77.1,4.2
0.029000,821.0,398.6,1538.9,87.4,2230.8,143.0,887.9,1557.8,2245,159.4,76.8,5
0.031000,872.4,432.0,1537.2,82.4,2234.8,148.2,890.4,1553.7,2244.5,159.1,76.6,5.9
0.033000,908.8,454.3,1538.9,78.7,2240.5,156.7,893.7,1548.7,2244,158.9,76.4,6.8
0.035000,935.1,475.7,1541.3,77.5,2247.4,172.6,897.7,1543,2243.6,158.7,76.2,7.6
0.037000,955.6,482.3,1541.4,77.8,2251.9,180.5,902.5,1536.9,2243.5,158.4,76,8.3
0.039000,973.7,459.4,1538.5,77.7,2252.5,164.5,908.1,1530.6,2243.6,158.2,75.8,8.8
0.041000,986.8,424.3,1533.0,78.7,2252.3,137.2,914.6,1524.2,2244.1,158,75.7,9.4
0.043000,989.8,407.5,1526.3,81.4,2253.0,120.0,921.8,1518.2,2245.1,157.7,75.5,10.1
0.045000,983.4,408.8,1519.3,84.8,2254.5,113.9,929.7,1512.6,2246.8,157.5,75.4,11
0.047000,977.4,416.4,1514.3,88.1,2256.6,116.7,938.3,1507.7,2249.1,157.3,75.2,12.4
0.049000,980.3,416.4,1511.7,89.8,2258.5,123.8,947.5,1503.6,2252.1,157.1,75.1,14.1
0.051000,990.2,395.6,1511.0,87.1,2259.4,129.0,957,1500.6,2255.9,156.9,75,15.9
0.053000,999.4,362.6,1510.7,81.3,2260.1,128.3,966.9,1498.6,2260.5,156.7,75,17.3
0.055000,1004.5,337.8,1509.6,75.3,2263.5,123.8,976.8,1497.7,2265.8,156.5,74.9,18.2
0.057000,1002.5,329.7,1508.7,70.1,2270.9,118.5,986.6,1497.8,2271.7,156.3,74.9,18.2
0.059000,996.5,321.8,1509.5,64.9,2282.0,114.3,996,1498.9,2278.3,156.2,74.8,17.5
0.061000,992.4,304.2,1512.8,60.1,2297.1,114.0,1004.7,1500.9,2285.3,156.1,74.7,16.6
0.063000,990.6,281.4,1517.2,55.9,2311.5,117.4,1012.5,1503.6,2292.7,155.9,74.6,15.6
0.065000,988.2,256.9,1521.9,51.9,2322.1,126.0,1019.1,1506.8,2300.2,155.8,74.5,15
0.067000,986.8,240.0,1525.9,50.0,2327.5,143.0,1024.2,1510.2,2307.8,155.7,74.4,14.7
0.069000,987.0,232.2,1527.6,50.4,2330.8,169.6,1027.7,1513.6,2315.2,155.6,74.2,14.5
0.071000,988.3,230.4,1524.9,52.0,2336.2,200.0,1029.1,1516.7,2322.3,155.6,74.1,14.3
0.073000,992.4,231.3,1518.3,53.7,2344.9,219.7,1028.4,1519.4,2329,155.5,73.9,14.3
0.075000,998.4,233.6,1509.7,55.8,2350.4,220.1,1025.5,1521.2,2335.1,155.5,73.7,14.2
0.077000,1000.0,235.4,1502.7,58.6,2343.9,202.4,1020.1,1522.1,2340.5,155.4,73.5,14.2
0.079000,996.1,233.3,1497.2,63.0,2329.2,176.9,1012.4,1521.9,2345.1,155.4,73.3,14.2
0.081000,989.6,227.0,1491.7,68.7,2314.2,151.2,1002.2,1520.4,2348.8,155.4,73,14.3
0.083000,982.0,224.0,1486.1,73.2,2306.7,134.1,989.7,1517.5,2351.7,155.4,72.8,14.3
0.085000,971.1,230.8,1479.6,77.9,2306.5,127.2,975.2,1513.3,2353.7,155.4,72.6,14.2
0.087000,957.7,244.5,1473.6,83.4,2312.1,130.9,958.7,1507.8,2354.9,155.4,72.5,14
0.089000,941.3,254.1,1470.6,87.3,2322.1,141.9,940.6,1501.2,2355.5,155.4,72.4,13.7
0.091000,922.7,254.8,1471.3,86.7,2335.9,158.2,921.3,1493.5,2355.5,155.4,72.5,13.4
0.093000,905.9,254.1,1471.4,83.3,2348.9,175.0,901.1,1485.1,2355.1,155.4,72.5,13
0.095000,888.2,258.8,1467.4,81.5,2356.3,187.9,880.6,1476.2,2354.6,155.4,72.6,12.3
0.097000,866.6,270.0,1460.1,86.8,2352.8,192.4,860.2,1467.1,2354,155.4,72.7,11.4
0.099000,836.9,283.6,1451.0,103.8,2340.7,192.1,840.4,1458.2,2353.7,155.4,72.7,10.2
0.101000,805.5,284.5,1441.8,140.4,2330.8,192.3,821.7,1449.9,2353.9,155.4,72.8,8.9
0.103000,795.9,268.1,1440.0,202.1,2336.4,191.8,804.6,1442.5,2354.8,155.5,72.9,7.7
0.105000,814.4,238.7,1461.5,306.8,2358.2,178.3,789.6,1436.4,2356.6,155.5,73,6.9
0.107000,839.3,194.9,1513.6,402.2,2382.3,153.7,777.1,1431.9,2359.5,155.5,73.2,6.4
0.109000,849.9,161.8,1547.1,430.4,2401.8,130.5,767.5,1429.3,2363.5,155.5,73.3,6.2
0.111000,847.5,158.0,1529.3,426.4,2417.6,116.6,761,1428.8,2368.9,155.5,73.4,6.1
0.113000,836.3,171.7,1492.5,421.7,2429.8,114.8,758,1430.6,2375.6,155.5,73.4,6.2
0.115000,817.8,183.0,1462.1,402.7,2439.2,122.6,758.5,1434.9,2383.7,155.5,73.4,6.3
0.117000,797.1,175.9,1453.1,340.2,2445.1,135.7,762.6,1441.6,2393.1,155.6,73.3,6.6
0.119000,776.3,157.7,1456.7,257.7,2452.7,153.5,770.4,1450.6,2403.6,155.6,73.2,7.2
0.121000,759.6,148.4,1456.5,204.1,2468.6,181.5,781.5,1461.8,2415.2,155.6,73.1,7.8
0.123000,750.4,164.7,1447.9,203.3,2486.1,210.0,795.9,1475,2427.5,155.6,72.9,8.3
0.125000,744.2,201.0,1436.9,232.9,2474.8,3993.4,813.3,1489.8,2440.3,155.6,72.7,8.3
0.127000,746.6,220.0,1432.5,237.6,2474.1,294.3,833.1,1505.9,2453.3,155.6,72.3,7.9
0.129000,757.9,219.1,1447.2,204.2,2467.3,321.2,855.1,1522.7,2466.1,155.6,71.9,7.1
0.131000,767.0,227.8,1477.0,166.1,2455.1,262.9,878.6,1539.9,2478.4,155.6,71.3,6.1
0.133000,773.1,277.7,1500.4,157.0,2443.8,199.2,903.1,1556.9,2489.7,155.6,70.5,5.1
0.135000,806.4,386.1,1513.2,194.9,2425.7,165.1,928.1,1573.1,2499.7,155.6,69.8,4.3
0.137000,908.5,443.3,1528.8,279.4,2402.9,145.3,953,1588,2508.1,155.6,69,6.9
0.139000,1011.7,351.0,1569.6,356.8,2383.6,129.1,977.2,1601.2,2514.4,155.6,68.3,12.9
0.141000,1074.4,259.8,1613.0,381.5,2378.7,124.8,1000.2,1612,2518.3,155.6,67.7,17.3
0.143000,1121.1,221.8,1644.5,408.8,2393.4,136.3,1021.5,1620.2,2519.7,155.6,67.2,15.3
0.145000,1154.3,210.1,1678.1,456.3,2425.0,154.3,1040.6,1625.3,2518.4,155.6,66.8,2.1
0.147000,1166.1,221.1,1698.1,483.5,2462.1,166.3,1057.2,1627.2,2514.1,0,66.4,-28.8
0.149000,1159.6,251.2,1684.1,444.0,2499.0,168.7,1071.1,1625.6,2506.9,0,66,-74.1
0.151000,1133.5,286.5,1647.5,323.4,2529.1,162.3,1082,1620.4,2496.8,0,65.7,-124.1
0.153000,1103.0,291.6,1622.4,218.1,2543.9,156.5,1089.8,1611.8,2484,0,65.4,-169.3
0.155000,1075.1,259.6,1606.7,160.0,2543.5,159.1,1094.6,1599.9,2468.5,0,65.4,-200
0.157000,1053.5,216.5,1596.2,138.6,2532.0,165.5,1096.4,1585,2450.8,0,65.4,-216.1
0.159000,1040.0,180.0,1584.2,132.0,2520.9,167.5,1095.5,1567.3,2431.1,0,65.6,-224.2
0.161000,1037.2,152.5,1565.1,124.1,2515.5,167.7,1092,1547.4,2409.9,0,65.8,-224.2
0.163000,1046.4,134.4,1545.1,110.9,2513.4,177.2,1086.4,1525.8,2387.6,0,66,-216.1
0.165000,1068.0,126.0,1528.7,105.8,2509.1,220.8,1079.1,1503.1,2364.8,0,66.2,-200
0.167000,1094.6,132.8,1514.9,122.9,2495.7,328.3,1070.4,1479.8,2341.9,0,66.1,-166.2
0.169000,1119.2,160.1,1493.4,169.0,2454.3,517.8,1061,1456.7,2319.6,0,65.9,-114.8
0.171000,1131.3,235.0,1436.5,233.7,2351.3,715.3,1051.1,1434.4,2298.4,0,65.5,-60.1
0.173000,1090.2,343.3,1370.6,188.3,2237.5,631.6,1041.5,1413.6,2278.7,0,64.9,-16.6
0.175000,1032.8,355.1,1361.4,144.4,2224.3,477.5,1032.4,1394.8,2261.2,0,64.2,1.1
0.177000,1009.5,344.0,1368.4,159.5,2210.8,441.7,1024.3,1378.6,2246.1,0,63.5,-16.6
0.179000,996.4,346.5,1370.1,210.1,2162.5,470.8,1017.6,1365.5,2234,0,62.6,-60.1
0.181000,979.6,352.6,1351.3,271.3,2097.4,461.5,1012.6,1355.8,2225.2,0,61.8,-114.8
0.183000,966.5,347.8,1319.7,301.0,2076.3,397.4,1009.6,1349.9,2219.7,0,61,-166.2
0.185000,960.1,323.0,1295.6,301.7,2096.4,325.2,1008.5,1347.9,2217.9,0,60.1,-200
