time,f1,b1,f2,b2,f3,b3,f1p,f2p,f3p,f0,intensity,harmonicity
0.026000,664.9,65.9,1631.2,209.1,2190.6,153.9,685.1,1616.2,2184,136.6,71.8,2.1
0.028000,677.9,66.5,1616.0,190.7,2178.8,187.4,687,1615.3,2184.6,136.3,71.5,2.9
0.030000,690.4,66.3,1608.8,187.8,2170.1,236.7,690.1,1613.8,2185.5,136.1,71.2,4
0.032000,701.7,67.9,1605.9,200.1,2170.6,315.4,694.4,1611.8,2186.8,135.9,71,5
0.034000,710.9,72.8,1608.4,216.4,2182.7,448.1,699.7,1609.3,2188.4,135.6,70.8,5.9
0.036000,717.8,76.4,1614.7,219.3,2200.2,578.9,705.8,1606.3,2190.3,135.4,70.7,6.4
0.038000,725.5,76.9,1619.4,219.8,2211.4,615.1,712.7,1602.9,2192.5,135.2,70.5,6.5
0.040000,734.0,77.9,1620.4,228.3,2211.9,567.4,720.1,1599.3,2195,134.9,70.4,6.3
0.042000,740.5,80.7,1614.4,235.3,2205.0,507.8,727.8,1595.4,2197.7,134.8,70.3,6.3
0.044000,743.1,81.2,1598.7,224.4,2197.7,458.1,735.6,1591.3,2200.7,134.6,70.2,6.5
0.046000,745.2,77.6,1581.7,195.5,2203.5,423.6,743.3,1587.2,2203.9,134.4,70.1,7.3
0.048000,749.8,74.0,1568.3,163.3,2219.1,403.9,750.8,1583,2207.3,134.3,70.1,8.8
0.050000,754.1,71.8,1561.1,140.3,2227.5,396.9,757.7,1578.9,2210.9,134.2,70.1,10.7
0.052000,756.5,68.2,1557.2,125.9,2224.2,393.3,764.1,1574.9,2214.6,134.1,70.2,12.4
0.054000,758.4,63.5,1553.2,119.7,2216.7,379.4,769.6,1571.1,2218.6,134,70.3,13.7
0.056000,761.1,60.4,1547.5,120.3,2208.9,350.9,774.2,1567.5,2222.7,134,70.4,13.9
0.058000,763.6,58.1,1541.8,122.7,2199.9,317.1,777.8,1564.1,2226.9,134,70.6,13.3
0.060000,765.5,55.8,1539.8,126.7,2195.5,298.3,780.3,1561.1,2231.4,134,70.7,12.2
0.062000,768.3,55.1,1541.7,137.7,2200.5,302.4,781.7,1558.3,2236.1,134.1,70.8,10.9
0.064000,772.0,56.6,1547.3,152.5,2219.5,323.6,782,1555.8,2241,134.2,70.8,9.8
0.066000,774.3,57.4,1554.3,152.4,2246.7,338.3,781.2,1553.6,2246.2,134.3,70.8,9.1
0.068000,775.0,55.9,1560.1,134.2,2273.7,339.2,779.5,1551.8,2251.7,134.4,70.8,8.6
0.070000,775.3,55.3,1564.1,115.0,2293.8,334.7,776.9,1550.2,2257.5,134.6,70.8,8.2
0.072000,774.3,57.2,1565.0,103.1,2301.4,333.5,773.6,1548.9,2263.6,134.8,70.8,7.9
0.074000,770.9,58.8,1562.1,97.2,2292.2,330.4,769.8,1547.9,2270.1,135,70.7,7.8
0.076000,766.5,58.8,1557.8,96.5,2279.2,319.9,765.6,1547.2,2277.1,135.2,70.6,8
0.078000,762.8,60.2,1553.5,103.3,2275.9,304.3,761.2,1546.7,2284.5,135.4,70.5,8.7
0.080000,760.3,64.0,1551.8,114.2,2287.5,278.5,757,1546.4,2292.3,135.7,70.3,9.5
0.082000,758.6,67.5,1554.0,121.0,2304.4,241.1,753,1546.4,2300.6,136,70.2,10.4
0.084000,757.8,69.3,1559.8,125.2,2316.4,206.8,749.6,1546.6,2309.4,136.2,70.1,11
0.086000,757.7,70.4,1567.1,135.8,2320.8,187.4,746.9,1547.1,2318.7,136.5,70.1,11.1
0.088000,757.3,70.4,1573.8,153.6,2321.2,175.5,745.1,1547.9,2328.4,136.8,70,10.7
0.090000,757.2,70.0,1576.0,167.9,2322.7,165.2,744.5,1549,2338.6,137.1,69.9,10.1
0.092000,759.4,72.8,1572.0,174.8,2330.1,154.6,745.2,1550.4,2349.1,137.4,69.8,9.5
0.094000,765.6,80.3,1561.2,175.0,2344.9,144.6,747.3,1552.2,2360.1,137.7,69.6,8.9
0.096000,772.7,87.8,1548.6,171.6,2361.6,138.6,751,1554.4,2371.3,138,69.4,8.5
0.098000,778.3,93.8,1540.4,168.3,2378.1,137.8,756.4,1557,2382.8,138.3,69.1,8.3
0.100000,783.5,100.5,1541.1,163.5,2394.5,137.6,763.4,1560.1,2394.5,138.5,68.8,8.2
0.102000,790.8,109.3,1547.2,154.0,2411.1,131.8,772.1,1563.6,2406.2,138.8,68.5,8.1
0.104000,799.7,118.8,1552.6,144.1,2425.4,123.4,782.4,1567.7,2418,139,68.2,8
0.106000,807.2,130.1,1554.8,142.6,2437.9,119.1,794.3,1572.4,2429.7,139.3,67.8,7.9
0.108000,812.0,145.9,1555.1,153.3,2453.0,119.8,807.7,1577.5,2441.3,139.5,67.4,7.8
0.110000,811.8,159.1,1554.6,172.9,2469.0,122.0,822.5,1583.1,2452.6,139.7,66.9,7.8
0.112000,807.7,165.7,1555.2,195.3,2482.6,120.5,838.4,1589.2,2463.5,139.9,66.3,7.6
0.114000,802.8,169.4,1559.4,220.5,2492.3,115.3,855.4,1595.8,2474,140.1,65.6,7.3
0.116000,799.9,172.9,1565.9,258.0,2496.5,116.6,873.2,1602.7,2484,140.2,64.8,6.7
0.118000,801.3,178.5,1575.6,326.9,2493.2,140.0,891.6,1609.8,2493.4,140.4,64,5.7
0.120000,810.8,189.7,1602.5,375.2,2482.3,178.8,910.3,1617.1,2502.2,140.5,63.1,4.4
0.122000,830.3,213.4,1641.3,326.3,2480.1,188.2,929.2,1624.5,2510.2,140.6,62.1,3.2
0.124000,877.0,262.3,1664.6,232.2,2492.1,167.9,947.9,1631.7,2517.4,140.7,61.2,2.3
0.126000,968.8,285.7,1676.6,166.6,2509.1,152.3,966.3,1638.8,2523.8,140.8,60.4,1.8
0.128000,1056.4,239.2,1688.1,125.8,2526.8,143.8,984.1,1645.5,2529.4,140.8,59.7,1.8
0.130000,1091.5,199.6,1695.4,108.4,2535.4,145.6,1001.1,1651.7,2534.1,140.9,59.2,2
0.132000,1107.1,183.3,1703.3,113.0,2535.2,162.9,1017.2,1657.2,2537.9,140.9,58.7,2.3
0.134000,1122.0,170.7,1716.8,138.5,2529.7,195.8,1032.1,1661.9,2540.9,141,58.4,2.4
0.136000,1132.3,151.2,1729.6,170.5,2523.0,223.9,1045.8,1665.7,2543,141,58.1,3.2
0.138000,1134.4,135.1,1724.4,193.9,2521.5,234.1,1058,1668.4,2544.2,141,57.8,8.2
0.140000,1131.9,134.0,1690.7,194.0,2532.3,232.4,1068.8,1670,2544.8,0,57.6,13.9
0.142000,1127.9,143.1,1645.2,168.4,2557.6,233.8,1078,1670.4,2544.5,0,57.5,15.5
0.144000,1121.3,155.3,1610.8,137.3,2586.9,247.2,1085.6,1669.5,2543.6,0,57.3,8.5
0.146000,1109.2,163.4,1594.0,117.6,2597.5,266.3,1091.7,1667.3,2542.1,0,57.1,-12.6
0.148000,1090.1,153.5,1591.3,100.4,2585.9,275.3,1096.3,1663.8,2540,0,56.9,-51.6
0.150000,1071.1,125.2,1602.4,82.2,2571.6,266.0,1099.4,1659.1,2537.5,0,56.7,-100
0.152000,1053.9,96.1,1619.4,64.8,2565.9,253.3,1101.1,1653.2,2534.6,0,56.4,-148.4
0.154000,1038.2,75.8,1635.5,51.8,2560.7,245.0,1101.6,1646.2,2531.4,0,56.1,-187.2
0.156000,1025.8,66.7,1648.1,45.3,2549.1,242.6,1100.9,1638.3,2527.9,0,55.9,-208.1
0.158000,1016.5,70.2,1658.2,45.0,2529.2,253.2,1099.2,1629.6,2524.3,0,55.7,-214.7
0.160000,1015.1,97.6,1657.8,53.4,2499.5,296.6,1096.7,1620.4,2520.6,0,55.5,-212.5
0.162000,1026.4,164.4,1638.0,70.2,2448.9,389.3,1093.5,1610.7,2516.9,0,55.4,-206.3
0.164000,1041.8,269.6,1601.6,83.7,2379.3,516.4,1089.8,1600.9,2513.3,0,55.4,-200.9
0.166000,1048.7,366.0,1571.2,80.3,2344.1,632.0,1085.9,1591.1,2509.8,0,55.3,-200
0.168000,1062.4,414.3,1554.7,68.3,2411.0,712.6,1081.8,1581.5,2506.5,0,55.1,-200
0.170000,1080.4,384.1,1548.6,58.1,2538.4,634.7,1077.7,1572.5,2503.4,0,54.7,-200
0.172000,1084.8,326.1,1547.9,54.6,2607.2,505.0,1073.8,1564.2,2500.7,0,54.1,-200
0.174000,1084.7,288.0,1554.5,59.7,2614.4,457.8,1070.3,1556.7,2498.3,0,53.3,-200
0.176000,1085.9,278.2,1564.5,67.5,2582.6,500.7,1067.2,1550.4,2496.3,0,52.3,-200
0.178000,1091.6,292.3,1567.3,75.4,2514.4,597.0,1064.7,1545.3,2494.7,0,51.3,-200
0.180000,1105.2,321.1,1561.1,87.1,2450.5,665.3,1062.8,1541.6,2493.5,0,50.3,-200
0.182000,1123.9,342.5,1553.4,107.3,2452.1,688.0,1061.7,1539.3,2492.8,0,49.3,-200
0.184000,1136.9,328.8,1552.4,139.3,2516.4,658.7,1061.3,1538.5,2492.6,0,48.4,-200
