time,f1,b1,f2,b2,f3,b3,f1p,f2p,f3p,f0,intensity,harmonicity
0.025000,653.2,74.1,1756.0,140.9,2681.3,447.4,667.8,1733.1,2821,155.5,72.2,10.2
0.027000,657.1,75.0,1749.4,146.4,2719.2,467.0,668.8,1732.8,2819.8,155.4,72.1,10.5
0.029000,660.3,76.6,1739.7,152.4,2742.8,511.2,670.4,1732.2,2817.9,155.3,71.9,10.4
0.031000,663.9,81.5,1729.9,157.6,2755.6,573.1,672.7,1731.5,2815.3,155.2,71.7,10.2
0.033000,669.4,89.9,1723.9,159.5,2768.5,620.5,675.6,1730.5,2812,155,71.4,10
0.035000,678.0,101.0,1724.5,158.5,2793.4,615.7,679,1729.3,2808,154.9,71,9.9
0.037000,689.7,113.5,1726.7,158.1,2812.5,581.1,683,1727.8,2803.4,154.8,70.7,9.9
0.039000,701.9,122.7,1726.3,159.5,2819.3,550.4,687.5,1726.1,2798.2,154.7,70.2,9.9
0.041000,711.7,124.3,1725.1,160.7,2829.4,493.5,692.4,1724.1,2792.5,154.6,69.8,9.9
0.043000,720.3,120.8,1726.0,166.3,2843.7,392.0,697.7,1721.9,2786.4,154.6,69.4,10
0.045000,728.0,117.3,1729.7,188.4,2848.9,303.9,703.3,1719.3,2779.9,154.5,69.1,10
0.047000,733.8,116.5,1734.5,228.2,2841.7,267.0,709.2,1716.5,2773,154.4,68.8,10.1
0.049000,736.6,118.0,1732.2,260.0,2823.0,269.0,715.3,1713.3,2766,154.3,68.7,10.1
0.051000,737.6,119.1,1720.6,262.0,2798.5,277.0,721.5,1709.8,2758.7,154.3,68.6,10.2
0.053000,738.2,117.1,1706.0,246.5,2775.2,276.9,727.8,1706,2751.4,154.3,68.6,10.4
0.055000,738.8,112.5,1690.6,230.2,2757.2,272.3,734,1701.8,2744.1,154.2,68.7,10.7
0.057000,740.1,107.2,1675.1,214.9,2744.6,263.7,740.2,1697.3,2736.8,154.2,68.8,11.2
0.059000,742.2,101.3,1665.1,195.0,2737.7,251.5,746.3,1692.5,2729.6,154.2,68.8,11.9
0.061000,745.3,95.6,1662.0,171.6,2734.6,242.5,752.2,1687.3,2722.6,154.2,68.9,12.8
0.063000,749.7,91.5,1660.7,150.8,2733.1,245.0,757.8,1681.7,2715.8,154.2,68.9,13.6
0.065000,755.1,90.1,1659.2,140.4,2733.3,261.5,763.1,1675.9,2709.4,154.2,68.8,14.3
0.067000,760.7,91.1,1659.7,141.6,2734.0,279.1,768,1669.6,2703.3,154.3,68.8,15
0.069000,765.3,93.5,1660.2,155.6,2729.9,286.5,772.5,1663.1,2697.6,154.3,68.7,15.7
0.071000,767.0,94.7,1654.5,181.8,2718.3,291.9,776.5,1656.3,2692.3,154.3,68.7,16.4
0.073000,766.5,93.0,1641.6,209.1,2700.4,293.8,780,1649.2,2687.4,154.4,68.6,16.9
0.075000,766.2,90.5,1630.5,218.2,2681.1,276.6,783,1641.8,2683.1,154.4,68.5,17.2
0.077000,767.6,89.5,1625.0,212.8,2665.3,248.0,785.4,1634.2,2679.2,154.5,68.5,17.3
0.079000,770.6,89.6,1624.5,203.6,2657.0,225.6,787.3,1626.5,2675.8,154.6,68.4,17
0.081000,773.9,90.5,1627.3,195.6,2656.2,216.1,788.6,1618.5,2672.9,154.6,68.3,16.7
0.083000,775.8,92.0,1628.3,191.2,2660.8,221.3,789.3,1610.5,2670.5,154.7,68.2,16.4
0.085000,775.0,92.2,1624.5,194.6,2670.2,239.4,789.5,1602.4,2668.6,154.8,68.1,16.1
0.087000,773.1,90.8,1617.9,209.4,2684.2,262.8,789.1,1594.2,2667.1,154.8,67.9,15.8
0.089000,771.4,90.6,1606.8,245.0,2699.2,288.5,788.2,1586.1,2666,154.9,67.8,15.6
0.091000,770.8,93.5,1586.8,305.3,2706.6,306.9,786.7,1578,2665.3,155,67.6,15.3
0.093000,771.8,99.3,1555.9,377.2,2700.9,306.1,784.8,1570,2665,155,67.4,15.1
0.095000,773.0,105.5,1528.6,414.3,2685.8,297.6,782.5,1562.2,2664.9,155.1,67.3,15
0.097000,772.5,108.8,1515.3,410.5,2664.1,310.8,779.8,1554.6,2665.1,155.2,67.1,15
0.099000,770.4,108.5,1512.7,404.8,2638.3,348.5,776.8,1547.3,2665.6,155.2,66.9,15.2
0.101000,767.7,108.0,1516.5,418.8,2618.6,385.2,773.5,1540.3,2666.2,155.3,66.6,15.4
0.103000,763.8,109.7,1518.8,448.9,2613.0,401.9,770,1533.6,2667,155.3,66.4,15.5
0.105000,759.5,112.5,1510.7,463.7,2626.8,383.8,766.3,1527.4,2667.8,155.3,66.3,15.4
0.107000,756.4,114.4,1501.4,437.9,2656.3,334.2,762.6,1521.6,2668.7,155.3,66.1,15.1
0.109000,755.6,114.9,1510.8,391.0,2686.4,272.7,758.9,1516.3,2669.6,155.4,66,14.7
0.111000,755.4,113.0,1534.6,347.1,2700.8,238.5,755.2,1511.6,2670.5,155.4,66,14.2
0.113000,751.9,107.6,1555.3,314.7,2700.4,263.5,751.7,1507.4,2671.3,155.4,66,13.6
0.115000,746.1,100.5,1565.4,302.5,2675.9,354.9,748.5,1503.8,2672.1,155.3,66,13.1
0.117000,743.6,96.6,1570.3,301.1,2625.0,446.4,745.5,1500.8,2672.7,155.3,66,12.5
0.119000,748.3,98.9,1577.0,293.7,2600.4,477.8,742.8,1498.5,2673.3,155.3,65.9,11.8
0.121000,759.3,106.5,1585.0,280.5,2621.6,465.4,740.6,1496.9,2673.7,155.2,65.9,11.1
0.123000,774.3,114.8,1585.5,277.0,2656.2,439.6,738.8,1495.8,2674.1,155.2,65.8,10.5
0.125000,786.2,118.9,1567.4,301.2,2677.5,464.0,737.6,1495.5,2674.3,155.1,65.7,10
0.127000,793.1,122.5,1528.8,354.4,2677.3,560.6,737,1495.8,2674.5,155,65.5,9.6
0.129000,798.5,129.9,1480.9,423.7,2650.7,667.5,737,1496.8,2674.6,154.9,65.3,9.3
0.131000,805.4,139.4,1443.9,487.8,2635.1,684.9,737.8,1498.4,2674.7,154.8,65,9.1
0.133000,814.8,150.7,1430.2,535.7,2658.4,597.3,739.2,1500.6,2674.8,154.7,64.7,8.9
0.135000,823.7,164.3,1443.9,552.8,2682.0,443.8,741.3,1503.4,2675,154.6,64.4,8.7
0.137000,823.9,179.4,1453.5,531.2,2687.6,356.2,744.3,1506.8,2675.3,154.4,64,8.6
0.139000,807.3,193.1,1427.6,485.0,2691.3,404.6,748,1510.7,2675.7,154.3,63.5,8.5
0.141000,787.3,200.7,1410.7,432.8,2669.8,519.2,752.5,1515,2676.4,154.1,63.1,8.4
0.143000,774.4,213.9,1412.1,423.8,2631.8,581.7,757.8,1519.8,2677.4,153.9,62.8,8.3
0.145000,771.7,234.4,1426.0,465.7,2603.4,617.2,763.9,1525,2678.7,153.8,62.5,8.2
0.147000,772.6,247.1,1461.8,520.8,2586.6,646.4,770.7,1530.5,2680.4,153.6,62.3,8.1
0.149000,763.5,236.2,1521.4,515.1,2602.1,649.1,778.2,1536.3,2682.6,153.4,62.1,8.1
0.151000,743.8,214.2,1577.0,433.2,2650.7,597.6,786.5,1542.2,2685.3,153.2,62,8
0.153000,717.6,198.0,1608.6,326.1,2701.2,501.4,795.4,1548.4,2688.6,152.9,61.8,7.9
0.155000,693.5,196.7,1615.7,248.9,2731.9,421.9,805,1554.6,2692.6,152.7,61.5,7.6
0.157000,680.6,209.1,1612.9,207.8,2745.7,383.7,815.1,1560.8,2697.2,152.5,61.1,7.1
0.159000,681.0,235.0,1611.9,188.3,2750.5,379.7,825.8,1567.1,2702.6,152.3,60.6,6.4
0.161000,689.2,278.2,1616.8,178.8,2757.1,380.1,836.9,1573.2,2708.7,152,60,5.5
0.163000,702.6,354.0,1624.7,177.2,2778.8,332.8,848.4,1579.2,2715.6,151.8,59.3,4.7
0.165000,730.2,447.8,1626.4,190.4,2802.0,241.0,860.2,1585,2723.3,151.6,58.6,4
0.167000,781.8,472.7,1613.0,214.9,2813.5,176.3,872.3,1590.5,2731.8,151.4,57.9,3.3
0.169000,833.3,406.4,1590.8,221.7,2819.2,154.2,884.6,1595.7,2741.1,151.2,57.4,2.6
0.171000,875.3,337.9,1583.6,200.1,2825.0,169.1,896.9,1600.6,2751.1,0,57,1.9
0.173000,927.4,291.1,1596.4,168.8,2837.4,225.4,909.3,1605,2762,0,57,1.3
0.175000,986.2,238.7,1612.7,133.2,2858.9,289.2,921.6,1609.1,2773.5,0,57.2,0.8
0.177000,1025.2,178.1,1619.4,96.3,2874.1,285.1,933.8,1612.7,2785.7,0,57.6,3.7
0.179000,1041.2,139.2,1618.8,70.9,2877.5,239.1,945.7,1615.8,2798.4,0,58,9.9
0.181000,1047.1,125.4,1617.4,58.8,2879.2,200.9,957.4,1618.4,2811.7,0,58.3,14.7
0.183000,1050.4,128.2,1616.6,54.6,2879.5,178.8,968.7,1620.5,2825.4,0,58.4,13
0.185000,1051.9,138.4,1614.0,55.0,2874.4,187.9,979.6,1622.1,2839.5,0,58.3,0.1
0.187000,1053.7,148.2,1606.9,57.7,2862.1,234.1,990,1623.2,2853.7,0,58,-30.3
0.189000,1056.8,152.9,1596.3,59.2,2844.9,305.6,999.8,1623.7,2868.1,0,57.5,-75.2
0.191000,1059.1,151.2,1589.0,57.4,2838.8,365.4,1009,1623.7,2882.5,0,56.9,-124.8
0.193000,1061.4,150.6,1591.5,57.4,2859.3,380.1,1017.5,1623.2,2896.7,0,56.3,-169.6
0.195000,1067.0,162.1,1606.6,67.0,2889.9,353.9,1025.3,1622.2,2910.6,0,55.6,-200
0.197000,1073.9,180.0,1632.9,84.5,2909.2,330.7,1032.3,1620.8,2924.2,0,55,-212.8
0.199000,1073.7,191.5,1661.9,97.8,2918.6,331.8,1038.6,1618.9,2937.1,0,54.3,-214.4
0.201000,1066.0,198.4,1681.3,103.1,2920.2,352.1,1044,1616.7,2949.4,0,53.6,-209.6
0.203000,1057.9,207.6,1686.4,110.1,2904.1,360.9,1048.5,1614.1,2960.9,0,53,-203.2
0.205000,1056.1,218.8,1671.7,126.9,2871.2,310.8,1052.2,1611.1,2971.5,0,52.5,-200
0.207000,1055.9,235.5,1637.1,147.5,2847.8,233.6,1055,1607.9,2980.9,0,52.1,-200
0.209000,1047.0,266.9,1596.4,147.3,2836.8,179.1,1056.9,1604.4,2989.2,0,51.9,-200
0.211000,1028.7,310.5,1570.6,120.4,2830.2,157.1,1057.9,1600.7,2996.1,0,51.8,-200
0.213000,1010.4,360.4,1559.6,91.8,2826.1,160.6,1058,1596.9,3001.7,0,51.8,-200
0.215000,1008.5,394.5,1557.2,80.0,2830.5,180.6,1057.3,1593,3005.7,0,51.8,-200
0.217000,1027.2,406.7,1559.4,85.0,2848.0,202.6,1055.7,1589,3008.2,0,51.7,-200
0.219000,1057.8,409.9,1565.0,105.6,2875.9,221.1,1053.3,1585,3009,0,51.3,-200
0.221000,1085.8,410.2,1573.1,141.4,2911.7,242.3,1050.1,1580.9,3008.2,0,50.7,-200
0.223000,1089.2,411.2,1580.4,191.1,2959.6,271.6,1046.2,1577,3005.6,0,50,-200
0.225000,1049.6,419.8,1577.0,238.1,3013.5,297.9,1041.5,1573.1,3001.3,0,49.2,-200
0.227000,994.1,423.1,1559.8,266.7,3054.3,295.6,1036.2,1569.4,2995.3,0,48.5,-200
0.229000,955.1,422.0,1537.3,265.0,3064.5,258.2,1030.3,1565.8,2987.6,0,47.9,-200
0.231000,944.5,435.6,1522.0,245.7,3059.5,215.3,1023.8,1562.4,2978.2,0,47.5,-200
0.233000,962.3,483.4,1514.4,224.5,3056.9,197.3,1016.8,1559.2,2967.2,0,47.2,-200
0.235000,996.7,568.6,1509.3,198.6,3059.0,222.5,1009.3,1556.2,2954.7,0,47.1,-200
0.237000,1017.0,661.3,1505.8,163.4,3062.0,308.4,1001.5,1553.5,2940.7,0,46.8,-200
0.239000,1004.7,693.8,1508.3,131.5,3039.4,485.1,993.3,1551,2925.4,0,46.6,-200
0.241000,986.7,660.1,1517.0,115.6,2955.5,561.1,984.9,1548.7,2908.9,0,46.2,-200
0.243000,980.7,614.5,1531.6,115.7,2921.2,526.5,976.2,1546.8,2891.3,0,45.8,-200
0.245000,984.9,591.8,1551.7,133.0,2929.1,512.3,967.5,1545,2872.8,0,45.3,-200
0.247000,989.6,606.2,1576.7,167.2,2955.7,529.9,958.7,1543.6,2853.6,0,44.7,-200
0.249000,977.5,683.8,1602.9,209.3,2984.7,587.9,949.8,1542.3,2833.7,0,44.2,-200
0.251000,930.1,849.7,1625.8,233.5,2991.1,695.5,941,1541.4,2813.5,0,43.8,-200
0.253000,849.5,1101.9,1641.3,229.5,2951.8,792.7,932.4,1540.6,2793.1,0,43.6,-200
0.255000,814.8,1368.7,1629.2,223.3,2913.4,873.9,923.9,1540,2772.6,0,43.6,-200
0.257000,869.2,1521.1,1591.3,214.1,2907.6,965.0,915.7,1539.6,2752.3,0,43.6,-200
0.259000,912.8,1380.6,1560.2,180.1,2902.7,954.6,907.8,1539.4,2732.4,0,43.7,-200
0.261000,899.0,1121.8,1548.7,138.7,2844.6,879.3,900.2,1539.3,2713,0,43.6,-200
0.263000,881.8,981.3,1546.8,110.3,2755.5,823.3,893.1,1539.3,2694.4,0,43.6,-200
0.265000,883.7,996.2,1548.8,100.7,2675.0,810.5,886.4,1539.4,2676.7,0,43.5,-200
0.267000,900.2,1082.0,1551.0,103.6,2617.6,822.4,880.2,1539.6,2660.1,0,43.2,-200
0.269000,916.6,1109.0,1552.3,116.1,2582.5,812.0,874.5,1539.8,2644.7,0,42.7,-200
0.271000,919.8,1046.3,1549.5,139.5,2566.2,785.5,869.4,1540.1,2630.8,0,42.2,-200
0.273000,912.3,993.6,1534.2,174.0,2551.5,790.5,864.9,1540.3,2618.5,0,41.7,-200
0.275000,900.0,1020.9,1510.4,196.5,2531.4,848.4,861.1,1540.6,2607.8,0,41.5,-200
0.277000,889.8,1091.4,1500.2,199.8,2508.0,966.5,857.9,1540.8,2598.9,0,41.4,-200
0.279000,882.1,1186.4,1502.5,204.7,2474.9,1129.3,855.4,1541,2591.9,0,41.5,-200
0.281000,865.8,1300.6,1505.2,221.3,2432.3,1288.0,853.6,1541.2,2586.9,0,41.4,-200
0.283000,838.7,1417.9,1504.4,250.6,2395.2,1416.7,852.5,1541.3,2583.8,0,41.2,-200
0.285000,825.6,1514.2,1500.9,288.5,2372.3,1535.1,852.2,1541.3,2582.8,0,41,-200
