time,f1,b1,f2,b2,f3,b3,f1p,f2p,f3p,f0,intensity,harmonicity
0.026000,715.4,113.1,1495.4,52.7,2895.7,119.7,734,1519.4,2918.8,162,75.4,4.8
0.028000,721.7,115.5,1501.2,48.9,2901.7,119.2,735.1,1519.9,2918.4,161.4,75.4,4.5
0.030000,729.5,122.2,1505.2,46.5,2907.1,121.3,736.9,1520.7,2917.8,160.7,75.3,4
0.032000,737.9,129.1,1509.6,46.2,2909.8,124.2,739.2,1521.9,2917,160,75.2,3.5
0.034000,746.1,133.7,1515.2,49.4,2910.5,128.6,742.2,1523.3,2915.9,159.2,75,3.1
0.036000,754.6,135.4,1522.7,57.6,2910.2,135.8,745.6,1525,2914.7,158.4,74.7,2.7
0.038000,761.1,131.6,1531.2,68.5,2910.8,143.8,749.5,1526.9,2913.3,157.6,74.4,2.4
0.040000,766.0,123.7,1540.5,75.2,2913.9,148.4,753.6,1529,2911.8,156.7,74.2,2.1
0.042000,770.8,116.8,1547.0,73.0,2917.9,145.7,758,1531.3,2910.3,155.8,74,1.8
0.044000,774.8,111.0,1548.6,68.1,2920.5,140.2,762.4,1533.6,2908.6,154.9,74,1.6
0.046000,776.8,103.1,1546.6,65.3,2921.9,136.8,766.8,1536,2906.9,154,74,1.5
0.048000,777.1,94.3,1544.2,65.6,2922.2,136.4,771.1,1538.4,2905.3,153.1,74.1,1.4
0.050000,776.8,85.4,1544.7,66.9,2921.8,134.6,775.1,1540.8,2903.7,152.2,74.2,1.3
0.052000,776.4,78.3,1549.2,66.7,2920.6,127.3,778.8,1543.1,2902.1,151.3,74.3,1.3
0.054000,776.6,75.0,1555.5,65.3,2918.1,116.9,782,1545.3,2900.7,150.4,74.3,1.5
0.056000,777.3,74.3,1560.8,63.1,2913.8,107.1,784.7,1547.4,2899.3,149.5,74.3,2.1
0.058000,777.9,73.3,1563.5,59.6,2909.1,100.2,786.9,1549.4,2898.1,148.6,74.2,3.1
0.060000,778.4,71.0,1564.6,55.4,2904.0,96.6,788.5,1551.2,2896.9,147.8,74.1,4.3
0.062000,779.2,69.3,1564.8,52.3,2897.7,98.1,789.4,1552.9,2896,146.9,73.9,5.6
0.064000,779.9,68.5,1564.1,50.4,2891.7,102.8,789.7,1554.3,2895.1,146.1,73.8,6.6
0.066000,780.8,67.7,1562.5,49.1,2887.9,108.2,789.4,1555.6,2894.3,145.3,73.8,7
0.068000,782.3,68.7,1560.4,49.2,2885.9,112.2,788.5,1556.8,2893.7,144.5,73.7,7
0.070000,783.9,70.9,1557.9,50.0,2882.8,110.3,787,1557.9,2893.2,143.7,73.7,6.6
0.072000,784.5,71.9,1556.2,50.0,2879.9,99.4,785.1,1558.8,2892.7,143,73.7,6.3
0.074000,784.5,71.8,1554.7,50.5,2878.4,86.7,782.8,1559.7,2892.3,142.3,73.6,6.3
0.076000,784.2,72.3,1552.2,54.0,2877.0,78.4,780.1,1560.5,2891.8,141.6,73.6,6.9
0.078000,783.1,71.6,1548.7,59.4,2875.9,76.0,777.2,1561.3,2891.4,140.9,73.5,8.3
0.080000,780.6,68.9,1544.9,64.4,2876.2,77.3,774.3,1562.2,2891,140.3,73.3,10
0.082000,778.2,68.2,1542.5,67.8,2876.4,79.3,771.3,1563.1,2890.5,139.7,73.2,11.6
0.084000,776.0,70.8,1541.7,69.2,2875.4,80.8,768.5,1564.1,2890,139.1,72.9,12.7
0.086000,772.6,72.5,1542.3,67.0,2875.5,81.7,765.8,1565.2,2889.4,138.5,72.6,12.8
0.088000,768.9,70.6,1545.0,63.1,2879.3,82.0,763.6,1566.4,2888.7,138,72.2,11.9
0.090000,765.8,68.1,1550.5,62.5,2888.3,83.6,761.8,1567.9,2887.9,137.4,71.6,10.5
0.092000,764.9,67.3,1558.3,69.5,2901.0,85.4,760.5,1569.5,2887,136.9,71,9
0.094000,766.3,66.6,1566.4,80.9,2909.7,83.0,759.9,1571.3,2886.1,136.4,70.3,7.9
0.096000,767.4,63.8,1572.2,90.9,2907.9,80.2,760,1573.4,2885,135.9,69.6,7.6
0.098000,764.9,59.6,1573.0,101.3,2898.9,79.2,760.8,1575.6,2883.9,135.4,68.8,8.1
0.100000,759.5,56.2,1569.6,127.9,2889.8,82.4,762.5,1578.1,2882.8,134.9,68,8.9
0.102000,756.9,56.6,1566.2,185.1,2887.9,92.2,765,1580.7,2881.6,134.5,67.2,9.7
0.104000,759.7,60.8,1575.5,257.4,2894.0,101.5,768.3,1583.5,2880.5,134,66.4,10.2
0.106000,766.9,66.8,1610.6,293.7,2899.6,101.7,772.5,1586.5,2879.4,133.6,65.6,10.9
0.108000,772.9,72.4,1645.0,267.4,2893.8,95.4,777.5,1589.6,2878.3,133.1,64.7,15.5
0.110000,774.7,83.5,1655.5,215.0,2876.5,87.6,783.3,1592.7,2877.4,132.7,63.8,20.7
0.112000,774.4,109.8,1648.3,170.7,2857.8,80.7,789.9,1596,2876.6,132.3,62.9,21.6
0.114000,775.1,166.6,1639.2,147.6,2848.2,78.2,797.2,1599.2,2876.1,131.8,62,13.8
0.116000,781.2,289.3,1632.4,144.5,2851.8,84.5,805.2,1602.4,2875.7,131.4,61.1,-8.2
0.118000,801.1,477.8,1628.5,155.7,2868.7,100.6,813.8,1605.6,2875.5,131,60.3,-48.1
0.120000,836.2,678.6,1624.0,165.2,2891.9,122.1,822.9,1608.7,2875.6,130.6,59.6,-97.7
0.122000,866.4,845.1,1613.4,158.1,2905.1,145.3,832.4,1611.7,2876,130.3,59.1,-147.2
0.124000,913.1,1000.0,1598.3,144.2,2903.6,179.9,842.4,1614.5,2876.6,129.9,58.6,-186.9
0.126000,957.5,1119.5,1583.7,128.6,2890.2,242.5,852.6,1617.2,2877.6,129.6,58.3,-208.3
0.128000,878.8,1092.6,1576.3,107.3,2868.1,327.1,863,1619.6,2878.8,129.2,58,-215.1
0.130000,804.3,755.2,1576.3,83.3,2843.8,409.5,873.6,1621.9,2880.3,128.9,57.7,-212.8
0.132000,812.5,524.7,1580.1,67.5,2843.9,418.0,884.3,1623.9,2882,128.6,57.3,-206.5
0.134000,831.1,391.8,1584.1,62.1,2867.7,321.8,895,1625.7,2884,128.3,57,-200.9
0.136000,851.0,302.0,1586.8,67.4,2881.4,215.1,905.7,1627.3,2886.2,0,56.5,-200
0.138000,872.0,263.8,1589.0,82.9,2886.3,153.2,916.3,1628.6,2888.6,0,56,-200
0.140000,899.0,271.1,1596.2,111.3,2893.4,115.7,926.8,1629.8,2891.1,0,55.6,-200
0.142000,943.7,306.8,1619.0,148.4,2902.8,93.1,937.1,1630.7,2893.7,0,55,-200
0.144000,1000.7,325.3,1653.7,163.6,2910.4,81.4,947.3,1631.4,2896.3,0,54.6,-200
0.146000,1039.0,330.6,1672.6,140.0,2914.2,79.7,957.2,1632,2899,0,54.4,-200
0.148000,1041.6,347.8,1669.0,104.9,2914.5,85.3,966.9,1632.4,2901.7,0,54.4,-200
0.150000,1012.7,330.5,1660.9,71.3,2914.0,92.5,976.4,1632.7,2904.3,0,54.4,-200
0.152000,989.2,256.7,1656.1,48.5,2914.7,98.9,985.6,1632.9,2906.8,0,54.5,-200
0.154000,991.1,198.5,1652.8,37.1,2912.9,112.7,994.5,1633,2909.1,0,54.6,-200
0.156000,1005.5,173.5,1649.7,33.6,2900.0,143.6,1003.2,1633.1,2911.3,0,54.6,-200
0.158000,1022.5,169.1,1647.5,35.8,2880.9,171.3,1011.6,1633.1,2913.3,0,54.4,-200
0.160000,1036.3,163.8,1646.8,41.8,2875.1,171.3,1019.7,1633.1,2915.1,0,54.1,-200
0.162000,1036.4,146.9,1647.4,50.8,2890.2,150.0,1027.5,1633.1,2916.7,0,53.6,-200
0.164000,1024.3,126.6,1647.2,61.0,2914.2,128.2,1034.9,1633.1,2918.1,0,53,-200
0.166000,1008.0,116.2,1640.6,65.4,2937.6,118.4,1042.1,1633.2,2919.2,0,52.5,-200
0.168000,995.2,125.7,1627.6,57.9,2952.8,132.4,1048.9,1633.2,2920.1,0,52.2,-200
0.170000,989.6,156.8,1615.3,48.6,2960.4,175.9,1055.3,1633.3,2920.8,0,52.1,-200
0.172000,998.6,199.3,1609.4,42.8,2952.5,230.0,1061.3,1633.5,2921.3,0,52.2,-200
0.174000,1023.5,235.2,1610.7,39.0,2932.0,243.1,1066.9,1633.6,2921.7,0,52.3,-200
0.176000,1061.1,263.6,1617.1,36.5,2922.8,206.2,1072.1,1633.8,2921.9,0,52.3,-200
0.178000,1098.5,282.0,1624.4,36.5,2925.4,173.6,1076.8,1634,2922,0,52.3,-200
0.180000,1124.2,278.7,1631.9,38.6,2927.3,161.0,1081,1634.2,2922,0,52.2,-200
0.182000,1127.7,253.6,1639.6,41.9,2924.7,159.9,1084.8,1634.4,2921.9,0,51.9,-200
0.184000,1120.0,229.8,1647.0,45.1,2919.3,150.2,1088,1634.6,2921.8,0,51.5,-200
0.186000,1114.4,219.3,1651.6,47.0,2913.2,125.6,1090.6,1634.7,2921.7,0,51.2,-200
0.188000,1118.0,226.2,1649.4,47.2,2908.6,103.3,1092.7,1634.9,2921.5,0,50.8,-200
0.190000,1122.9,243.6,1639.3,46.5,2906.3,91.9,1094.2,1635,2921.4,0,50.3,-200
0.192000,1096.8,247.9,1624.2,43.5,2907.3,96.3,1095.1,1635,2921.4,0,49.9,-200
0.194000,1034.2,206.2,1612.0,39.5,2912.5,117.5,1095.4,1635.1,2921.3,0,49.3,-200
