time,f1,b1,f2,b2,f3,b3,f1p,f2p,f3p,f0,intensity,harmonicity
0.026000,676.7,58.0,1557.6,129.0,2743.7,336.9,710.6,1567.8,2757.1,145,71.5,8.5
0.028000,684.8,54.0,1553.8,132.5,2721.4,282.2,710.9,1564.2,2756.1,144.9,71.7,9
0.030000,693.4,50.6,1546.9,138.2,2711.4,259.3,711.4,1558.1,2754.5,144.8,71.9,9.7
0.032000,701.9,49.2,1538.4,146.7,2716.0,261.8,712.1,1549.8,2752.1,144.6,72.1,10.4
0.034000,709.4,50.0,1529.6,156.8,2735.7,273.1,713,1539.4,2749.2,144.5,72.4,11
0.036000,716.6,50.8,1521.4,164.3,2761.3,278.8,714.2,1527.1,2745.6,144.4,72.6,11.3
0.038000,722.5,51.3,1516.4,169.0,2773.9,276.8,715.7,1513.2,2741.4,144.3,72.7,11.2
0.040000,727.3,53.3,1512.3,177.9,2769.5,271.9,717.4,1497.9,2736.7,144.2,72.7,11
0.042000,730.5,56.8,1505.3,191.5,2756.3,263.5,719.5,1481.6,2731.5,144,72.7,10.9
0.044000,733.7,60.3,1495.6,205.9,2746.2,250.9,721.9,1464.4,2725.7,143.9,72.6,11
0.046000,739.2,65.2,1483.7,227.3,2743.3,235.3,724.6,1446.8,2719.6,143.9,72.5,11.7
0.048000,745.4,72.7,1468.1,262.2,2744.6,220.2,727.6,1429,2713.1,143.8,72.3,13.1
0.050000,750.0,81.4,1440.9,313.6,2740.3,206.3,731,1411.3,2706.2,143.7,72.1,14.8
0.052000,752.1,87.8,1401.0,358.2,2724.0,193.0,734.6,1394.1,2699,143.7,71.9,16.4
0.054000,752.9,92.3,1361.7,371.0,2701.7,177.9,738.5,1377.5,2691.7,143.6,71.7,17.7
0.056000,752.9,95.5,1333.8,363.7,2680.1,162.3,742.5,1361.8,2684.1,143.6,71.6,18.2
0.058000,753.1,95.2,1320.5,360.9,2663.3,150.8,746.7,1347.3,2676.5,143.6,71.5,18.1
0.060000,755.0,94.5,1310.2,377.3,2648.2,142.8,750.9,1334,2668.8,143.7,71.3,17.6
0.062000,758.3,98.8,1290.7,420.6,2634.9,137.1,755.1,1322.1,2661.1,143.7,71.2,16.9
0.064000,762.3,106.7,1263.2,485.4,2624.7,131.8,759.2,1311.7,2653.5,143.8,71.1,16.4
0.066000,767.6,113.0,1242.5,564.6,2618.5,128.1,763,1302.9,2646,143.9,70.9,16.2
0.068000,771.3,115.9,1249.0,607.4,2618.6,129.7,766.5,1295.6,2638.8,144,70.8,16.3
0.070000,770.4,117.3,1279.4,568.9,2622.8,132.9,769.7,1289.8,2631.7,144.1,70.7,16.6
0.072000,767.0,115.2,1309.5,489.0,2624.3,131.8,772.3,1285.5,2625,144.3,70.5,16.7
0.074000,765.5,111.7,1325.5,425.8,2619.1,126.5,774.3,1282.6,2618.7,144.5,70.4,16.5
0.076000,765.7,111.5,1326.5,390.8,2608.6,120.1,775.7,1281,2612.8,144.6,70.2,15.6
0.078000,764.8,114.4,1317.7,385.7,2599.5,116.5,776.3,1280.5,2607.4,144.9,70,14
0.080000,761.4,117.5,1306.9,409.3,2595.6,119.4,776.3,1281,2602.4,145.1,69.9,12.1
0.082000,757.9,121.6,1297.3,474.0,2598.7,132.3,775.4,1282.3,2598,145.3,69.7,10.2
0.084000,756.3,125.9,1289.2,576.3,2606.4,152.6,773.8,1284.3,2594.2,145.6,69.5,8.9
0.086000,754.7,125.7,1288.0,667.5,2611.7,168.7,771.6,1286.9,2591,145.8,69.4,8.6
0.088000,750.2,122.0,1296.4,676.5,2608.3,168.8,768.6,1289.9,2588.5,146.1,69.3,9.3
0.090000,744.2,118.4,1306.7,638.5,2599.4,157.1,765.1,1293.2,2586.6,146.3,69.1,10.6
0.092000,740.3,116.5,1311.3,610.9,2591.3,142.2,761.2,1296.6,2585.4,146.6,69,12
0.094000,739.7,117.4,1308.6,599.7,2586.5,129.3,756.9,1300.1,2584.8,146.9,68.8,13.2
0.096000,741.5,124.2,1300.9,584.1,2584.9,117.5,752.5,1303.6,2584.9,147.1,68.6,13.7
0.098000,744.2,134.9,1292.5,548.4,2585.7,108.1,748.2,1307.1,2585.7,147.3,68.3,13.9
0.100000,746.4,143.2,1287.7,488.8,2587.5,100.5,744,1310.5,2587.1,147.6,68.1,13.9
0.102000,747.9,143.6,1292.2,419.8,2590.7,95.4,740.3,1313.8,2589.2,147.8,67.9,13.7
0.104000,750.9,138.0,1307.7,357.6,2595.8,91.8,737.3,1317.2,2591.9,148,67.8,13.5
0.106000,756.9,131.7,1327.8,306.3,2601.7,87.1,735,1320.5,2595.1,148.2,67.7,13.1
0.108000,765.4,131.9,1338.5,277.8,2605.6,82.9,733.9,1324,2598.8,148.3,67.6,12.6
0.110000,777.4,140.4,1337.2,275.1,2606.9,81.5,733.9,1327.5,2603.1,148.5,67.6,11.9
0.112000,791.0,150.8,1328.9,293.5,2606.1,84.1,735.4,1331.3,2607.7,148.6,67.6,11.1
0.114000,801.5,156.8,1323.4,311.9,2605.2,89.3,738.4,1335.4,2612.8,148.7,67.5,10.4
0.116000,804.9,159.9,1326.3,303.5,2607.0,95.4,743.1,1339.8,2618.2,148.8,67.5,9.9
0.118000,798.1,161.2,1332.8,258.8,2612.0,102.1,749.5,1344.7,2623.9,148.8,67.4,9.3
0.120000,782.8,158.5,1339.0,199.0,2619.1,110.5,757.8,1350.1,2629.7,148.9,67.3,8.8
0.122000,764.3,151.4,1343.1,151.4,2628.2,117.0,767.9,1356,2635.7,148.9,67.1,8.3
0.124000,748.1,143.1,1345.1,124.4,2640.0,115.5,779.8,1362.5,2641.8,148.9,66.9,7.8
0.126000,739.0,138.0,1347.4,113.8,2652.4,101.6,793.4,1369.5,2647.9,149,66.5,7.3
0.128000,741.7,140.0,1353.8,115.4,2659.6,81.0,808.7,1377.1,2654,148.9,66.1,6.6
0.130000,758.2,143.3,1365.3,121.5,2660.9,61.0,825.5,1385.3,2660,148.9,65.5,6
0.132000,781.7,141.9,1376.0,132.3,2658.4,49.8,843.7,1393.9,2665.8,148.9,64.8,5.3
0.134000,803.7,148.7,1386.6,161.2,2656.2,49.6,863,1402.9,2671.4,148.9,64,4.8
0.136000,827.6,169.6,1412.6,221.8,2656.9,59.1,883.2,1412.2,2676.7,148.8,63,4.3
0.138000,853.0,194.7,1463.7,291.0,2661.6,73.8,904,1421.6,2681.7,148.8,61.9,4
0.140000,874.9,237.1,1516.8,314.8,2671.6,90.0,925.3,1431.1,2686.4,148.7,60.7,3.7
0.142000,892.4,330.0,1518.6,271.3,2685.5,106.5,946.7,1440.6,2690.7,148.6,59.4,3.4
0.144000,932.6,456.3,1497.4,220.8,2704.3,128.4,968,1449.7,2694.6,148.6,58.2,3.2
0.146000,1037.3,573.5,1485.1,213.4,2733.3,163.1,988.8,1458.5,2698,148.5,57.1,3
0.148000,1164.0,606.0,1485.1,247.9,2764.0,200.6,1009,1466.8,2701,0,56.3,2.8
0.150000,1211.7,649.6,1484.5,252.7,2776.2,244.9,1028.3,1474.5,2703.5,0,55.7,2.7
0.152000,1119.6,625.2,1480.8,186.6,2748.3,283.0,1046.5,1481.3,2705.6,0,55.4,2.6
0.154000,1088.7,449.0,1475.0,137.9,2704.1,260.6,1063.4,1487.3,2707.3,0,55.3,2.5
0.156000,1095.3,331.6,1464.5,111.1,2676.5,213.1,1078.8,1492.4,2708.5,0,55.2,3.5
0.158000,1103.7,274.9,1455.6,100.0,2663.0,189.5,1092.8,1496.4,2709.3,0,55,9.2
0.160000,1111.4,253.3,1453.9,101.8,2658.0,190.8,1105,1499.5,2709.7,0,54.8,15.8
0.162000,1117.3,261.8,1463.2,115.4,2668.1,212.3,1115.7,1501.5,2709.8,0,54.4,18.3
0.164000,1115.2,294.0,1474.5,128.1,2694.0,234.9,1124.6,1502.5,2709.5,0,54,11.8
0.166000,1108.6,343.0,1476.3,135.9,2722.2,230.5,1132,1502.5,2708.9,0,53.5,-9.4
0.168000,1102.9,387.7,1470.8,143.9,2733.1,202.2,1137.8,1501.7,2708.2,0,53.1,-48.9
0.170000,1096.5,404.9,1467.4,155.6,2729.8,171.0,1142.2,1500,2707.2,0,52.9,-98.1
0.172000,1089.8,354.9,1477.0,160.5,2719.6,150.5,1145.3,1497.8,2706,0,52.9,-147.4
0.174000,1088.6,260.9,1496.9,137.2,2706.2,142.6,1147.2,1495,2704.8,0,53,-187
0.176000,1100.1,179.1,1515.0,97.6,2691.6,137.4,1148.2,1491.8,2703.5,0,53.4,-208.2
0.178000,1117.2,138.5,1525.3,68.3,2683.4,130.2,1148.5,1488.4,2702.2,0,53.9,-215
0.180000,1132.6,130.8,1527.3,51.2,2680.9,130.8,1148.1,1484.9,2701,0,54.4,-212.7
0.182000,1142.6,151.4,1521.1,45.3,2679.4,151.4,1147.3,1481.6,2699.8,0,54.8,-206.4
0.184000,1148.1,196.7,1510.0,48.2,2679.3,192.5,1146.4,1478.5,2698.8,0,54.9,-200.9
0.186000,1153.8,276.0,1494.7,60.1,2685.2,248.5,1145.3,1475.7,2697.8,0,54.7,-200
0.188000,1163.3,386.0,1476.4,79.5,2692.9,310.5,1144.4,1473.5,2697.1,0,54.2,-200
0.190000,1177.7,530.0,1455.2,105.3,2697.4,410.5,1143.6,1471.8,2696.5,0,53.3,-200
0.192000,1195.3,646.8,1442.6,140.1,2712.7,555.7,1143.1,1470.7,2696.2,0,52.2,-200
0.194000,1175.1,604.0,1459.1,183.1,2763.4,661.8,1142.9,1470.4,2696.1,0,50.9,-200
