time,f1,b1,f2,b2,f3,b3,f1p,f2p,f3p,f0,intensity,harmonicity
0.025000,636.1,108.4,1364.3,200.5,2448.2,284.7,660.8,1287.1,2461.5,142.1,71.3,8.3
0.027000,643.5,119.5,1346.8,220.2,2437.8,271.0,661.4,1286.8,2461.8,141.7,71.2,8.2
0.029000,652.4,132.3,1323.8,231.9,2442.1,274.4,662.5,1286.3,2462.4,141.3,71,7.8
0.031000,661.8,143.6,1299.6,221.1,2456.3,285.9,664,1285.6,2463.1,140.9,71,7.2
0.033000,669.1,145.2,1283.1,195.3,2469.3,289.5,665.9,1284.7,2464,140.4,71,6.7
0.035000,674.0,138.0,1273.3,171.0,2473.4,276.7,668.1,1283.7,2465,140,71.2,6.5
0.037000,677.9,126.0,1265.7,152.4,2468.8,248.1,670.7,1282.5,2466,139.5,71.4,6.7
0.039000,682.0,110.2,1259.9,138.8,2458.9,214.0,673.6,1281.2,2467.1,139,71.6,7.3
0.041000,686.1,95.4,1255.5,132.8,2450.3,189.9,676.8,1279.8,2468.2,138.5,71.9,7.9
0.043000,689.7,86.3,1251.2,137.3,2449.4,183.2,680.2,1278.2,2469.1,138,72.1,8.4
0.045000,691.7,82.0,1246.9,147.6,2456.9,189.9,683.8,1276.6,2469.8,137.4,72.2,8.7
0.047000,692.3,77.8,1245.3,151.3,2465.2,196.3,687.5,1274.9,2470.3,136.9,72.3,8.6
0.049000,692.8,74.0,1246.2,148.5,2466.6,193.8,691.4,1273.1,2470.5,136.4,72.3,8.3
0.051000,694.7,75.2,1245.9,148.7,2462.1,185.2,695.2,1271.4,2470.3,135.9,72.2,7.8
0.053000,697.5,81.0,1243.3,150.9,2457.2,173.9,699.1,1269.6,2469.6,135.3,72.1,7.5
0.055000,701.2,85.4,1241.9,149.8,2455.4,164.3,703,1267.9,2468.4,134.8,71.9,7.4
0.057000,707.0,88.1,1244.5,152.2,2456.9,164.3,706.8,1266.2,2466.6,134.3,71.7,7.5
0.059000,715.7,93.6,1252.2,171.6,2461.0,179.3,710.4,1264.6,2464.2,133.8,71.4,7.8
0.061000,724.7,99.5,1265.0,207.8,2465.2,197.5,714,1263.1,2461,133.3,71.1,8.2
0.063000,730.2,99.0,1277.8,237.3,2468.3,199.2,717.3,1261.7,2457.2,132.8,70.8,8.7
0.065000,732.1,93.8,1281.4,239.5,2474.4,185.9,720.4,1260.5,2452.6,132.4,70.5,9.3
0.067000,731.8,88.2,1272.3,212.0,2488.0,170.8,723.2,1259.4,2447.2,131.9,70.3,10.1
0.069000,729.2,81.1,1260.9,167.8,2505.8,163.1,725.8,1258.5,2441,131.5,70.1,11.2
0.071000,726.2,72.0,1258.2,128.0,2518.0,169.4,728.2,1257.8,2434,131,70,12.3
0.073000,724.9,65.2,1263.0,102.4,2517.4,201.7,730.2,1257.3,2426.2,130.6,70,13.3
0.075000,724.7,62.9,1269.0,90.2,2499.8,279.6,731.9,1257,2417.7,130.2,70,13.9
0.077000,724.8,63.5,1272.0,86.9,2466.1,404.1,733.4,1257,2408.4,129.8,70,14
0.079000,726.2,66.1,1272.9,89.2,2436.0,539.6,734.5,1257.1,2398.5,129.4,70.1,13.7
0.081000,729.3,72.1,1272.7,97.5,2421.9,672.9,735.4,1257.6,2387.8,129,70.1,13.3
0.083000,732.2,80.1,1271.2,109.7,2409.0,793.3,736.1,1258.3,2376.7,128.6,70.1,12.8
0.085000,733.1,85.4,1268.9,119.3,2387.7,861.6,736.5,1259.2,2365,128.3,70,12.5
0.087000,733.1,88.5,1268.5,124.0,2358.1,881.5,736.7,1260.4,2352.9,127.9,69.9,12.3
0.089000,733.8,94.4,1271.0,129.2,2312.8,888.9,736.8,1261.9,2340.4,127.6,69.6,12.1
0.091000,734.0,104.1,1273.8,137.2,2248.0,866.5,736.7,1263.6,2327.8,127.3,69.3,12
0.093000,731.5,109.4,1272.5,140.3,2192.9,743.5,736.5,1265.5,2315,126.9,68.9,11.8
0.095000,728.0,108.6,1269.3,133.3,2180.6,549.9,736.2,1267.6,2302.2,126.6,68.5,11.6
0.097000,727.1,112.7,1267.9,124.7,2188.0,392.2,735.9,1270,2289.4,126.3,68,11.2
0.099000,727.8,125.3,1266.7,118.8,2189.8,308.5,735.6,1272.6,2276.9,126,67.6,10.8
0.101000,729.0,137.1,1265.7,113.5,2187.6,282.5,735.4,1275.4,2264.6,125.8,67.2,10.3
0.103000,731.6,145.0,1266.1,110.7,2187.1,297.5,735.3,1278.3,2252.8,125.5,66.8,10
0.105000,735.9,157.0,1265.6,114.5,2187.3,339.7,735.3,1281.5,2241.5,125.2,66.4,9.7
0.107000,739.4,174.3,1261.9,124.7,2182.8,375.1,735.5,1284.7,2230.9,125,66,9.7
0.109000,739.9,186.5,1258.9,134.9,2178.1,379.1,735.9,1288.1,2220.9,124.7,65.7,9.9
0.111000,739.0,193.3,1263.6,142.4,2182.5,388.4,736.5,1291.6,2211.8,124.5,65.3,10.2
0.113000,738.1,204.2,1277.5,146.1,2195.0,442.7,737.4,1295.2,2203.6,124.2,65,10.3
0.115000,738.5,219.6,1294.0,140.9,2211.3,545.0,738.6,1298.8,2196.4,124,64.7,10.1
0.117000,740.2,227.2,1304.6,128.2,2223.6,637.9,740.2,1302.6,2190.2,123.8,64.5,9.7
0.119000,739.3,225.4,1309.2,117.3,2230.7,639.0,742,1306.3,2185.1,123.6,64.2,9
0.121000,733.1,226.8,1312.0,114.5,2240.4,554.8,744.2,1310,2181.2,123.4,63.8,8.2
0.123000,724.2,235.0,1315.5,124.7,2252.6,458.3,746.8,1313.8,2178.5,123.2,63.5,7.3
0.125000,723.5,239.6,1321.4,155.0,2262.1,397.9,749.7,1317.5,2176.9,123,63.2,6.4
0.127000,737.5,232.2,1333.1,213.4,2262.1,375.4,753,1321.2,2176.6,122.8,63,5.4
0.129000,755.3,214.8,1354.4,296.9,2251.3,369.3,756.6,1324.9,2177.5,122.7,63,4.2
0.131000,767.4,199.3,1377.6,383.2,2239.8,363.4,760.5,1328.4,2179.7,122.5,63.1,3
0.133000,775.8,196.7,1376.2,409.9,2236.7,346.0,764.8,1331.9,2183,122.3,63.3,1.9
0.135000,788.5,200.0,1350.8,312.6,2242.0,316.9,769.3,1335.4,2187.4,122.2,63.8,0.9
0.137000,813.8,185.5,1341.7,198.5,2240.4,281.6,774.1,1338.7,2193,122,64.3,0
0.139000,846.1,161.7,1346.3,138.6,2232.9,233.6,779.1,1341.8,2199.6,121.9,64.8,-1
0.141000,868.3,143.1,1352.1,111.6,2230.1,192.0,784.4,1344.9,2207.3,121.7,65.1,-1.8
0.143000,873.3,130.9,1355.2,99.9,2230.9,167.5,789.7,1347.9,2215.8,121.6,65.2,-2.4
0.145000,862.8,121.4,1356.0,97.6,2233.7,157.1,795.2,1350.7,2225.3,121.5,65,-2.5
0.147000,841.4,113.6,1354.8,106.7,2239.5,157.7,800.8,1353.3,2235.5,121.4,64.6,-1.9
0.149000,815.0,111.1,1350.6,136.1,2249.2,161.9,806.4,1355.9,2246.4,121.3,64,-0.9
0.151000,793.2,116.9,1341.3,188.5,2257.0,151.8,812.1,1358.3,2258,121.1,63.3,0.4
0.153000,784.3,129.3,1332.8,220.4,2259.4,130.9,817.7,1360.5,2270.1,121,62.6,1.6
0.155000,786.3,143.0,1333.8,198.3,2262.5,117.3,823.2,1362.6,2282.6,121,62,2.5
0.157000,791.3,160.0,1340.0,148.3,2269.0,113.2,828.7,1364.6,2295.5,120.9,61.6,2.9
0.159000,793.0,191.0,1346.2,101.8,2277.1,113.8,834,1366.4,2308.7,120.8,61.2,3
0.161000,789.2,243.6,1350.2,73.0,2282.7,114.6,839.1,1368.1,2322.1,120.7,60.9,2.9
0.163000,783.8,305.5,1352.1,58.9,2282.5,115.5,844,1369.7,2335.6,120.7,60.6,2.9
0.165000,782.8,357.6,1351.6,54.6,2276.5,123.6,848.8,1371.1,2349.2,120.6,60.3,3
0.167000,783.5,405.0,1349.8,55.4,2264.4,152.1,853.2,1372.4,2362.7,120.5,59.9,6.5
0.169000,782.7,458.7,1351.3,55.8,2248.2,218.5,857.5,1373.6,2376.3,120.5,59.5,13.4
0.171000,790.1,498.6,1359.2,54.6,2239.1,330.9,861.4,1374.6,2389.7,120.4,59,18.6
0.173000,810.8,475.1,1371.5,52.1,2254.0,450.2,865.2,1375.6,2402.9,120.4,58.4,17.3
0.175000,833.5,379.6,1385.2,48.6,2290.7,513.4,868.6,1376.4,2416,120.4,57.8,4.4
0.177000,850.2,281.5,1398.7,47.6,2337.4,557.6,871.8,1377.2,2428.8,120.4,56.8,-26.6
0.179000,863.2,225.4,1409.4,51.4,2400.4,677.1,874.7,1377.8,2441.4,0,55.7,-72.4
0.181000,882.5,209.3,1410.7,57.4,2507.1,891.4,877.4,1378.4,2453.8,0,54.6,-123.1
0.183000,909.7,207.6,1400.0,60.2,2642.7,923.1,879.8,1378.9,2465.9,0,53.6,-168.9
0.185000,932.2,201.8,1387.4,60.6,2660.7,686.0,882,1379.3,2477.7,0,52.6,-200
0.187000,943.6,200.7,1380.6,61.3,2619.8,508.7,884,1379.6,2489.3,0,51.7,-213.1
0.189000,943.2,216.2,1380.5,61.6,2584.1,427.2,885.9,1379.9,2500.6,0,51,-214.7
0.191000,933.8,253.5,1383.0,61.4,2563.4,413.9,887.6,1380.1,2511.7,0,50.3,-209.8
0.193000,926.2,301.6,1382.7,65.2,2560.2,445.6,889.2,1380.2,2522.6,0,49.7,-203.3
0.195000,931.7,338.4,1379.2,75.1,2573.0,488.9,890.8,1380.3,2533.3,0,49.1,-200
0.197000,948.2,356.3,1378.9,83.6,2594.0,524.9,892.2,1380.3,2543.9,0,49,-200
0.199000,964.9,356.6,1387.6,76.5,2604.8,559.9,893.7,1380.3,2554.3,0,48.8,-200
0.201000,974.9,355.3,1395.3,58.2,2594.0,599.5,895.1,1380.3,2564.6,0,48.6,-200
0.203000,971.5,354.6,1394.2,44.4,2574.4,636.6,896.6,1380.2,2574.8,0,48.7,-200
0.205000,949.8,345.6,1388.3,36.0,2574.7,643.5,898.1,1380,2585,0,48.9,-200
0.207000,921.1,330.9,1383.3,30.9,2602.3,623.1,899.7,1379.9,2595.2,0,49.3,-200
0.209000,902.7,317.6,1382.5,28.4,2643.7,604.9,901.4,1379.7,2605.3,0,49.4,-200
0.211000,900.5,308.7,1386.0,27.8,2682.1,588.4,903.3,1379.4,2615.4,0,49.4,-200
0.213000,907.5,300.9,1391.8,28.0,2694.3,580.2,905.2,1379.2,2625.5,0,49.2,-200
0.215000,919.8,297.8,1397.6,29.3,2685.2,561.2,907.3,1378.9,2635.7,0,48.9,-200
0.217000,932.6,302.3,1401.4,32.5,2667.7,486.1,909.5,1378.6,2645.9,0,48.3,-200
0.219000,924.0,301.2,1401.9,36.4,2644.6,388.3,911.9,1378.2,2656,0,47.7,-200
0.221000,885.0,267.3,1400.1,38.3,2622.8,303.3,914.4,1377.9,2666.2,0,47,-200
0.223000,850.0,208.8,1396.7,39.0,2609.5,244.8,917.1,1377.5,2676.4,0,46.3,-200
0.225000,837.9,166.2,1387.6,41.6,2605.5,219.0,919.9,1377.2,2686.5,0,45.6,-200
0.227000,838.6,151.4,1369.0,47.5,2612.4,220.6,922.8,1376.8,2696.6,0,45.1,-200
0.229000,836.8,157.7,1344.6,55.1,2633.2,241.6,925.8,1376.4,2706.6,0,44.5,-200
0.231000,830.1,180.0,1326.3,65.7,2662.2,283.9,928.9,1376,2716.4,0,43.9,-200
0.233000,833.1,218.7,1323.7,86.2,2680.7,355.6,932,1375.6,2726.1,0,43.2,-200
0.235000,855.2,267.9,1332.2,113.3,2678.4,441.1,935.2,1375.2,2735.5,0,42.6,-200
0.237000,886.6,318.4,1336.0,126.6,2666.7,508.0,938.3,1374.9,2744.7,0,42.1,-200
0.239000,911.2,360.6,1330.7,117.4,2659.8,543.2,941.4,1374.5,2753.5,0,41.9,-200
0.241000,927.7,371.8,1325.2,100.4,2671.3,550.4,944.5,1374.2,2762,0,41.6,-200
0.243000,947.3,344.5,1326.7,92.3,2704.9,544.0,947.5,1373.8,2770,0,41.4,-200
0.245000,965.0,303.3,1335.0,95.1,2735.9,533.6,950.3,1373.5,2777.6,0,41.2,-200
0.247000,970.0,282.6,1343.4,104.8,2748.8,541.8,953,1373.2,2784.6,0,40.9,-200
0.249000,972.7,292.7,1347.1,122.9,2775.1,585.2,955.5,1372.9,2791.1,0,40.5,-200
0.251000,987.9,310.8,1353.1,146.6,2852.9,572.4,957.8,1372.7,2796.9,0,40.2,-200
0.253000,1004.2,309.2,1369.6,159.6,2886.7,448.2,959.8,1372.5,2802,0,39.9,-200
0.255000,1001.5,295.2,1390.7,147.3,2880.7,409.1,961.6,1372.3,2806.4,0,39.7,-200
0.257000,983.6,282.4,1410.1,121.1,2866.0,412.4,963,1372.1,2810.1,0,39.5,-200
0.259000,969.7,273.3,1425.8,97.1,2849.4,433.9,964.2,1372,2812.9,0,39.3,-200
0.261000,980.3,276.1,1434.7,87.0,2846.9,488.3,965,1371.9,2815,0,39.1,-200
0.263000,1017.8,293.4,1436.7,96.3,2871.7,595.5,965.5,1371.8,2816.3,0,38.8,-200
0.265000,1071.3,310.9,1431.8,129.6,2935.0,725.3,965.7,1371.8,2816.7,0,38.6,-200
