time,f1,b1,f2,b2,f3,b3,f1p,f2p,f3p,f0,intensity,harmonicity
0.025000,723.6,73.8,1220.1,56.5,2643.9,523.7,729.9,1230.8,2652.4,152.6,79.2,13.1
0.027000,725.7,71.3,1221.0,51.6,2712.2,669.3,729.8,1230.2,2650.8,152.3,79.2,13.3
0.029000,725.6,67.0,1220.0,47.8,2739.5,677.3,729.6,1229.2,2648.1,152.1,79.2,13.4
0.031000,724.3,62.2,1217.9,46.4,2708.5,535.9,729.3,1227.8,2644.4,151.8,79.2,13.3
0.033000,723.7,57.1,1215.7,47.0,2675.8,398.0,728.9,1226,2639.7,151.6,79.2,13.2
0.035000,724.5,52.3,1213.9,49.3,2657.7,317.3,728.5,1223.9,2634.1,151.3,79.2,13.2
0.037000,725.8,49.5,1212.5,53.9,2644.0,277.3,727.9,1221.4,2627.5,151,79.2,13.4
0.039000,726.2,48.9,1211.4,60.8,2621.7,256.7,727.3,1218.6,2620,150.7,79.1,13.7
0.041000,725.3,50.1,1210.5,68.0,2585.4,236.2,726.5,1215.5,2611.8,150.3,79.1,14
0.043000,723.9,53.2,1209.8,72.5,2548.0,205.6,725.6,1212.1,2602.8,150,78.9,14.3
0.045000,722.7,57.1,1209.9,72.5,2525.7,175.9,724.6,1208.4,2593.1,149.6,78.8,14.4
0.047000,721.9,59.7,1210.2,69.8,2518.2,156.3,723.4,1204.6,2582.9,149.3,78.7,14.4
0.049000,721.4,61.2,1209.2,67.8,2518.7,144.7,722.1,1200.6,2572.1,148.9,78.5,14.2
0.051000,721.0,62.5,1206.1,67.6,2522.8,136.1,720.7,1196.5,2561,148.5,78.4,14
0.053000,720.5,62.7,1202.3,68.8,2525.8,126.5,719.1,1192.3,2549.5,148.1,78.3,14
0.055000,719.5,62.6,1198.9,71.4,2522.4,113.7,717.4,1188.1,2537.7,147.7,78.2,14.3
0.057000,718.2,63.9,1196.0,74.9,2511.9,98.6,715.5,1183.9,2525.8,147.3,78.1,15.2
0.059000,717.2,65.4,1194.7,77.6,2500.6,84.7,713.6,1179.8,2513.9,146.9,78,16.5
0.061000,716.9,66.1,1194.7,80.2,2492.6,76.0,711.5,1175.8,2502,146.4,77.9,18
0.063000,717.0,67.5,1193.8,84.5,2485.7,72.0,709.3,1171.9,2490.3,146,77.8,19.1
0.065000,717.3,69.2,1191.1,89.8,2475.7,67.8,707,1168.3,2478.7,145.5,77.7,19.4
0.067000,717.4,69.6,1188.6,94.2,2462.8,59.3,704.7,1164.9,2467.5,145.1,77.6,18.8
0.069000,716.8,70.4,1185.8,99.5,2450.8,49.4,702.4,1161.9,2456.7,144.6,77.5,17.3
0.071000,714.5,73.9,1180.3,108.1,2441.4,42.1,700,1159.2,2446.4,144.1,77.3,15.6
0.073000,711.0,77.7,1173.8,117.8,2435.0,37.7,697.7,1157,2436.6,143.6,77.1,13.9
0.075000,707.4,80.0,1168.7,127.7,2431.1,34.5,695.5,1155.3,2427.5,143.1,76.8,12.8
0.077000,703.9,84.2,1162.2,141.3,2427.7,31.6,693.3,1154,2419,142.6,76.5,12.4
0.079000,698.8,91.0,1149.2,159.0,2422.8,30.1,691.3,1153.3,2411.4,142.1,76.1,12.3
0.081000,691.3,95.6,1131.1,175.1,2416.5,32.1,689.5,1153.2,2404.5,141.6,75.8,12.5
0.083000,683.5,96.7,1117.0,184.7,2409.1,39.5,687.9,1153.8,2398.4,141.1,75.5,12.7
0.085000,676.6,97.2,1111.5,185.1,2399.9,54.2,686.6,1155,2393.2,140.6,75.2,12.7
0.087000,671.7,96.3,1113.8,177.4,2390.2,73.4,685.6,1156.8,2388.9,140.1,75,12.8
0.089000,669.9,96.3,1119.7,173.3,2386.3,88.0,684.9,1159.3,2385.5,139.6,74.7,12.8
0.091000,669.6,103.6,1123.8,183.3,2391.7,90.0,684.7,1162.5,2383,139.1,74.5,12.8
0.093000,670.4,118.1,1125.1,205.8,2399.1,81.9,684.9,1166.4,2381.4,138.5,74.3,12.8
0.095000,673.6,129.7,1133.9,227.2,2402.5,73.6,685.5,1170.9,2380.8,138,74.1,12.8
0.097000,678.6,133.9,1158.5,232.3,2402.6,69.8,686.7,1176.1,2380.9,137.5,74,12.6
0.099000,683.2,137.2,1185.2,220.8,2401.3,70.7,688.4,1181.9,2381.9,136.9,73.8,12.5
0.101000,687.8,141.0,1200.5,208.4,2401.8,72.8,690.7,1188.2,2383.7,136.4,73.7,12.4
0.103000,692.9,144.0,1207.7,203.2,2407.0,74.0,693.5,1195.2,2386.3,135.9,73.6,12.1
0.105000,698.2,150.6,1213.0,203.9,2416.1,76.0,697,1202.6,2389.5,135.4,73.4,11.6
0.107000,703.4,159.8,1219.3,202.5,2425.8,80.3,701.1,1210.5,2393.3,134.9,73.3,10.8
0.109000,707.3,161.3,1228.2,191.7,2430.6,84.3,705.8,1218.8,2397.7,134.3,73.1,9.8
0.111000,711.1,154.7,1243.3,177.0,2427.6,83.7,711.2,1227.4,2402.6,133.8,72.9,8.7
0.113000,718.9,148.1,1267.8,161.1,2418.0,80.3,717.1,1236.2,2407.8,133.4,72.7,7.8
0.115000,727.4,139.4,1290.4,140.7,2406.7,82.5,723.7,1245.3,2413.4,132.9,72.5,7.3
0.117000,728.0,131.5,1298.4,124.1,2400.6,94.5,730.9,1254.4,2419.2,132.4,72.3,7.6
0.119000,722.1,130.2,1297.1,112.5,2404.7,108.3,738.6,1263.6,2425.1,131.9,72,8.4
0.121000,716.7,139.4,1295.9,102.6,2415.6,115.0,746.8,1272.8,2431,131.5,71.7,9.4
0.123000,715.9,161.4,1295.8,97.1,2428.1,122.0,755.5,1281.8,2436.9,131,71.3,10.2
0.125000,722.5,191.3,1296.9,95.7,2434.7,132.9,764.7,1290.6,2442.6,130.6,70.9,10.3
0.127000,739.0,231.3,1303.2,94.8,2427.8,143.8,774.3,1299.2,2448.1,130.2,70.6,9.6
0.129000,773.1,295.8,1315.4,93.4,2410.1,154.4,784.2,1307.4,2453.3,129.8,70.2,8.4
0.131000,829.1,371.0,1325.4,95.1,2397.6,168.8,794.5,1315.3,2458.1,129.5,70,6.9
0.133000,871.5,407.7,1327.8,101.4,2403.3,185.9,805,1322.6,2462.4,129.1,69.8,5.4
0.135000,875.4,401.3,1324.6,109.4,2423.5,190.3,815.6,1329.5,2466.1,128.8,69.5,4.4
0.137000,864.8,373.3,1318.9,123.4,2444.0,170.4,826.4,1335.9,2469.2,128.4,69.3,3.9
0.139000,857.3,340.9,1312.1,155.3,2454.2,138.2,837.2,1341.6,2471.7,128.1,69,3.6
0.141000,859.0,311.1,1304.5,234.2,2456.8,117.6,848.1,1346.8,2473.4,127.8,68.8,3.4
0.143000,879.0,270.4,1301.0,369.4,2457.6,121.4,858.8,1351.3,2474.3,127.6,68.6,3.4
0.145000,901.4,241.8,1309.0,416.4,2467.4,154.9,869.5,1355.1,2474.5,127.3,68.7,3.5
0.147000,918.2,232.9,1328.6,358.6,2493.9,214.0,879.9,1358.4,2473.8,127,68.8,3.7
0.149000,926.0,225.2,1350.4,293.3,2519.4,260.5,890.1,1361,2472.2,126.8,69,4.1
0.151000,924.7,217.4,1365.4,238.8,2515.3,262.1,899.9,1363,2469.8,126.5,69.2,4.6
0.153000,921.7,209.9,1372.4,193.2,2483.6,235.4,909.5,1364.4,2466.5,126.3,69.3,5.1
0.155000,920.0,206.9,1370.7,157.9,2444.3,207.8,918.6,1365.2,2462.4,126.1,69.3,5.5
0.157000,918.4,209.4,1363.8,134.8,2415.3,194.2,927.2,1365.6,2457.4,125.8,69.2,6.1
0.159000,917.3,212.5,1359.2,120.6,2409.7,193.7,935.4,1365.4,2451.6,125.6,69,6.7
0.161000,917.2,213.2,1362.2,108.6,2428.0,198.7,943,1364.9,2445,125.4,68.7,7.2
0.163000,912.8,218.1,1370.9,91.6,2459.0,209.4,950.1,1364,2437.6,125.2,68.3,7.6
0.165000,898.6,241.2,1380.2,71.9,2491.3,241.8,956.6,1362.9,2429.5,124.9,67.8,7.6
0.167000,883.0,291.2,1387.3,61.3,2515.6,322.0,962.6,1361.5,2420.8,124.7,67.3,10.3
0.169000,887.8,353.9,1393.6,68.5,2517.2,444.2,967.9,1359.9,2411.4,124.5,66.7,15.9
0.171000,916.8,388.2,1400.3,94.8,2490.2,524.1,972.6,1358.3,2401.5,124.3,66.1,19.6
0.173000,948.1,370.8,1403.2,134.4,2439.3,510.0,976.7,1356.7,2391.2,124,65.6,17
0.175000,967.4,338.1,1388.5,164.8,2375.8,417.6,980.2,1355,2380.4,123.8,65,3.3
0.177000,979.1,327.1,1355.4,159.0,2328.5,303.2,983.2,1353.5,2369.2,123.6,64.4,-27.9
0.179000,993.3,337.2,1327.7,136.0,2304.5,231.5,985.5,1352.2,2357.8,123.4,63.9,-73.5
0.181000,1013.9,361.8,1314.0,122.8,2291.7,210.5,987.3,1351.1,2346.1,123.1,63.4,-123.8
0.183000,1030.2,395.4,1313.4,116.3,2286.2,227.7,988.5,1350.2,2334.3,122.9,62.8,-169.2
0.185000,1026.2,446.3,1324.8,102.1,2293.5,283.2,989.3,1349.6,2322.4,122.7,62.2,-200
0.187000,1001.9,524.4,1340.3,76.0,2322.2,373.2,989.6,1349.3,2310.4,122.5,61.6,-213
0.189000,987.9,594.9,1348.8,54.7,2364.7,472.5,989.4,1349.4,2298.6,122.3,60.9,-214.6
0.191000,1011.9,579.3,1349.7,48.2,2391.6,554.0,988.8,1349.9,2286.8,0,60.3,-209.8
0.193000,1030.5,513.9,1347.2,51.2,2372.7,616.9,987.9,1350.7,2275.2,0,59.6,-203.3
0.195000,1017.9,468.5,1344.6,59.3,2308.0,668.1,986.6,1351.8,2263.9,0,58.9,-200
0.197000,1000.3,428.1,1347.0,74.9,2236.2,685.7,985.1,1353.4,2252.8,0,58,-200
0.199000,992.2,375.8,1359.7,95.9,2191.9,666.0,983.3,1355.2,2242.1,0,57.2,-200
0.201000,975.0,329.0,1371.8,105.3,2162.7,611.7,981.3,1357.4,2231.7,0,56.5,-200
0.203000,948.9,293.3,1368.5,99.9,2124.5,523.9,979.2,1359.8,2221.8,0,55.9,-200
0.205000,934.2,258.5,1359.4,90.4,2091.5,425.8,977,1362.5,2212.3,0,54.9,-200
0.207000,938.5,246.0,1355.6,89.7,2081.4,355.9,974.7,1365.4,2203.3,0,54.1,-200
0.209000,957.6,261.4,1360.3,102.2,2091.9,321.9,972.3,1368.4,2194.8,0,53.2,-200
0.211000,987.8,288.8,1374.0,124.9,2114.8,311.8,970,1371.4,2186.9,0,52.4,-200
0.213000,1024.3,301.0,1393.6,149.6,2144.1,319.1,967.7,1374.6,2179.5,0,51.2,-200
0.215000,1054.1,283.0,1408.6,166.2,2171.3,342.3,965.5,1377.6,2172.7,0,50.2,-200
0.217000,1061.8,275.9,1405.7,168.5,2181.8,383.1,963.4,1380.6,2166.5,0,49.5,-200
0.219000,1048.2,312.2,1388.0,159.4,2177.9,412.6,961.4,1383.5,2161,0,49,-200
0.221000,1013.8,376.1,1370.4,141.0,2176.2,383.6,959.6,1386.1,2156,0,48.6,-200
0.223000,963.2,426.2,1362.9,123.8,2178.2,324.3,958,1388.6,2151.8,0,48.3,-200
0.225000,922.3,414.5,1369.2,116.4,2179.6,284.6,956.6,1390.7,2148.1,0,47.7,-200
0.227000,909.0,341.7,1388.3,113.7,2180.4,281.7,955.4,1392.5,2145.1,0,47,-200
0.229000,903.9,264.8,1406.5,106.6,2180.2,314.8,954.5,1393.9,2142.8,0,46.2,-200
0.231000,897.2,228.1,1410.8,104.1,2182.8,380.3,953.8,1395,2141.2,0,45.3,-200
0.233000,890.4,232.4,1398.8,111.9,2195.2,461.7,953.4,1395.6,2140.2,0,44.5,-200
0.235000,883.7,260.5,1374.9,121.4,2217.2,525.5,953.3,1395.8,2139.8,0,43.7,-200
