time,f1,b1,f2,b2,f3,b3,f1p,f2p,f3p,f0,intensity,harmonicity
0.025000,573.5,56.4,1457.6,76.0,2385.4,694.2,577.1,1450,2375.9,132.8,68.9,9.2
0.027000,579.3,57.7,1453.7,71.8,2376.9,620.7,579,1448.7,2373,132.7,68.9,8.9
0.029000,587.1,58.4,1450.4,67.5,2386.1,525.1,582.2,1446.8,2368.2,132.4,68.8,8.2
0.031000,596.3,61.3,1447.3,66.8,2395.4,435.7,586.6,1444,2361.7,132.1,68.7,7.4
0.033000,605.6,64.2,1443.2,69.2,2392.1,370.9,591.8,1440.6,2353.6,131.8,68.6,6.7
0.035000,611.2,62.9,1437.6,71.7,2374.2,341.4,597.9,1436.6,2344,131.4,68.5,6.6
0.037000,614.9,60.0,1430.9,71.2,2344.5,327.5,604.5,1432.1,2333.1,131.1,68.4,7
0.039000,620.5,59.3,1423.2,67.1,2307.8,317.5,611.4,1427.1,2321.2,130.7,68.3,7.9
0.041000,626.1,59.5,1416.9,62.7,2280.2,318.2,618.3,1421.7,2308.5,130.4,68.2,9
0.043000,629.0,57.9,1411.7,60.8,2263.1,324.0,625,1416.1,2295.3,130.1,68.1,10.1
0.045000,629.2,56.9,1406.0,64.5,2252.4,328.3,631.3,1410.4,2281.8,129.7,68.1,11.1
0.047000,628.6,58.2,1398.8,73.0,2243.9,335.6,636.9,1404.6,2268.3,129.4,68,12
0.049000,628.2,59.4,1391.4,80.9,2235.5,343.1,641.6,1398.9,2255.1,129,67.9,12.9
0.051000,628.2,58.6,1386.8,84.8,2227.3,344.4,645.3,1393.3,2242.4,128.7,67.7,13.7
0.053000,628.4,59.3,1383.1,90.6,2214.8,351.8,647.8,1388,2230.5,128.4,67.5,14.5
0.055000,628.6,64.5,1378.4,99.8,2194.6,380.8,649.1,1382.9,2219.6,128.1,67.2,15.1
0.057000,628.3,70.6,1373.9,105.4,2174.4,419.6,649,1378.2,2209.9,127.8,66.9,15.5
0.059000,628.2,73.9,1371.7,103.7,2169.3,433.1,647.7,1373.9,2201.6,127.5,66.6,15.9
0.061000,629.0,77.9,1371.4,99.5,2182.2,392.7,645.2,1370.1,2194.7,127.2,66.3,16.1
0.063000,630.5,87.2,1371.5,95.8,2193.6,326.4,641.5,1366.7,2189.5,127,66,16.3
0.065000,631.2,95.6,1371.7,91.5,2196.3,281.3,636.9,1363.8,2186,126.7,65.7,16.5
0.067000,630.0,97.8,1371.7,89.6,2200.7,262.3,631.4,1361.4,2184.1,126.5,65.4,16.7
0.069000,627.7,100.3,1371.3,95.5,2211.0,249.6,625.4,1359.4,2184,126.3,65.2,16.8
0.071000,625.6,107.9,1369.7,107.6,2218.9,229.2,619,1357.9,2185.6,126.1,64.9,17
0.073000,622.6,114.0,1366.4,115.1,2221.6,201.9,612.5,1356.9,2188.7,125.9,64.6,17
0.075000,618.0,110.9,1362.1,109.2,2223.5,175.6,606,1356.2,2193.3,125.7,64.4,17
0.077000,612.7,106.3,1357.7,97.6,2226.7,151.7,599.9,1355.9,2199.2,125.5,64.2,16.8
0.079000,607.9,106.0,1354.0,86.2,2228.4,128.5,594.3,1355.9,2206.3,125.3,64,16.5
0.081000,605.9,106.3,1352.0,79.0,2227.0,114.4,589.5,1356.2,2214.3,125.2,63.9,16.2
0.083000,605.2,105.6,1351.4,77.3,2226.3,111.8,585.5,1356.7,2223.1,125,63.7,15.8
0.085000,603.9,111.4,1351.8,83.2,2229.6,122.5,582.5,1357.5,2232.5,124.9,63.4,15.6
0.087000,603.0,126.9,1353.3,93.6,2236.9,142.4,580.6,1358.4,2242.2,124.7,63.2,15.4
0.089000,604.8,142.7,1356.3,100.1,2247.8,166.0,579.8,1359.5,2252.1,124.6,62.9,15.3
0.091000,606.5,148.3,1358.6,101.4,2262.9,184.9,580,1360.8,2261.8,124.5,62.7,15.3
0.093000,603.5,154.5,1359.0,110.0,2283.8,199.4,581.3,1362.1,2271.3,124.3,62.4,15.2
0.095000,595.0,168.3,1356.4,134.6,2297.9,205.0,583.5,1363.6,2280.3,124.2,62.1,14.9
0.097000,585.5,180.7,1352.9,165.5,2299.8,202.0,586.6,1365.2,2288.6,124.1,61.8,14.7
0.099000,577.9,186.3,1354.2,185.5,2296.2,198.2,590.2,1366.8,2296.2,124,61.6,14.3
0.101000,570.6,191.5,1361.5,185.6,2287.0,206.8,594.3,1368.6,2303,123.9,61.4,14
0.103000,560.7,197.7,1367.4,180.0,2262.9,242.7,598.7,1370.5,2308.8,123.7,61.2,13.4
0.105000,555.8,195.2,1367.3,184.9,2230.9,294.8,603.1,1372.5,2313.6,123.6,61,12.7
0.107000,563.8,192.6,1368.7,202.0,2226.5,330.2,607.3,1374.5,2317.4,123.5,60.9,11.6
0.109000,582.5,203.7,1379.7,232.7,2262.2,355.6,611.3,1376.7,2320.3,123.4,60.8,10.2
0.111000,603.7,222.6,1398.4,266.5,2315.5,372.5,614.7,1378.9,2322.3,123.3,60.7,8.7
0.113000,616.6,230.8,1410.9,289.3,2359.3,377.3,617.5,1381.2,2323.5,123.2,60.6,7.4
0.115000,613.9,220.9,1402.9,277.7,2369.2,370.3,619.6,1383.6,2324,123.1,60.5,6.4
0.117000,608.3,207.5,1392.3,228.0,2356.3,359.5,621,1386,2324,123,60.5,5.9
0.119000,609.4,200.9,1392.9,170.1,2341.6,352.8,621.6,1388.3,2323.7,122.9,60.6,5.7
0.121000,614.6,193.8,1395.6,128.6,2336.1,349.8,621.5,1390.5,2323.2,122.8,60.6,5.6
0.123000,618.7,180.8,1394.9,97.8,2336.8,346.2,620.8,1392.7,2322.8,122.7,60.6,5.6
0.125000,621.4,173.7,1392.2,79.3,2339.2,342.5,619.7,1394.6,2322.6,122.6,60.6,5.5
0.127000,625.0,182.3,1390.5,73.7,2339.3,332.3,618.3,1396.3,2322.9,122.5,60.5,5.4
0.129000,631.0,201.7,1392.6,78.8,2335.1,291.8,616.8,1397.7,2323.9,122.3,60.2,5.2
0.131000,634.7,210.7,1399.2,90.0,2331.3,237.1,615.5,1398.7,2325.8,122.2,59.9,5
0.133000,632.5,210.1,1407.5,104.9,2333.3,199.7,614.8,1399.3,2328.7,122.1,59.5,4.8
0.135000,632.5,233.8,1408.2,123.2,2342.3,192.5,614.7,1399.3,2332.8,121.9,59,4.6
0.137000,642.7,315.6,1393.2,146.4,2356.7,220.0,615.8,1398.8,2338.3,121.7,58.5,4.3
0.139000,660.5,476.0,1367.8,170.5,2374.2,291.8,618.1,1397.7,2345.2,121.5,58,3.9
0.141000,669.8,650.8,1352.5,183.1,2384.2,381.8,622,1395.9,2353.6,121.4,57.5,3.6
0.143000,665.0,751.2,1356.0,185.4,2381.9,437.6,627.6,1393.4,2363.5,121.1,57.1,3.3
0.145000,653.5,728.7,1374.1,182.7,2369.5,439.4,635.1,1390.1,2375,120.9,56.7,3.3
0.147000,647.7,660.9,1394.6,181.5,2357.6,435.4,644.7,1386.2,2388,120.7,56.2,3.7
0.149000,656.6,619.5,1408.9,180.2,2358.9,448.9,656.3,1381.6,2402.4,120.4,55.9,4.3
0.151000,681.0,626.1,1406.0,162.4,2381.7,448.7,670,1376.4,2418.1,120.1,55.7,5.1
0.153000,702.4,628.8,1387.5,118.2,2417.7,407.5,685.6,1370.6,2434.9,119.8,55.5,5.7
0.155000,698.0,603.9,1368.8,74.6,2446.2,364.9,703.1,1364.2,2452.7,119.5,55.4,5.9
0.157000,693.0,602.6,1357.8,50.9,2459.9,359.6,722.2,1357.4,2471.1,119.2,55.3,9
0.159000,713.0,660.0,1350.9,39.8,2469.2,398.7,742.6,1350.2,2490,118.8,55,14.9
0.161000,760.4,748.0,1346.4,36.4,2490.7,480.2,764,1342.9,2509.1,118.5,54.6,19.1
0.163000,801.8,803.6,1343.0,37.7,2539.4,598.6,786,1335.4,2528.1,118.1,54.1,16.9
0.165000,757.8,722.0,1339.9,43.1,2594.4,729.5,808.2,1327.9,2546.8,117.7,53.2,3.4
0.167000,712.1,528.5,1334.3,53.6,2611.4,909.5,830.1,1320.7,2564.7,117.4,52.2,-27.7
0.169000,702.8,416.6,1319.9,69.0,2558.9,1201.0,851.4,1313.7,2581.7,117,51.1,-73.2
0.171000,715.8,399.5,1302.5,72.8,2466.6,1400.7,871.4,1307.2,2597.5,116.6,50.1,-123.6
0.173000,762.1,451.6,1294.2,65.5,2518.5,1398.8,889.8,1301.2,2611.8,116.2,49.2,-169.1
0.175000,845.9,546.8,1293.0,61.6,2642.1,1149.8,906.2,1296,2624.3,115.9,48.5,-200
0.177000,971.5,630.7,1292.9,64.1,2690.3,846.1,920.1,1291.5,2634.8,115.5,47.9,-213
0.179000,1074.1,655.0,1290.2,70.5,2694.5,697.3,931.3,1288,2643.2,115.2,47.2,-214.6
0.181000,1113.7,738.0,1283.4,75.7,2695.6,706.4,939.5,1285.3,2649.3,114.9,46.4,-209.8
0.183000,1101.0,940.3,1273.5,81.3,2691.0,798.9,944.5,1283.8,2653,114.6,45.3,-203.3
0.185000,961.8,1161.2,1264.5,91.0,2647.5,855.1,946.2,1283.2,2654.3,0,44.2,-200
