time,f1,b1,f2,b2,f3,b3,f1p,f2p,f3p,f0,intensity,harmonicity
0.025000,642.6,52.7,1265.2,151.7,2543.9,295.4,645.8,1237,2577,125.5,69,9.7
0.027000,644.7,58.4,1267.5,141.9,2541.3,360.5,647.3,1238,2575,125.4,68.5,9.7
0.029000,648.3,70.7,1272.4,133.5,2556.1,488.2,649.9,1239.5,2571.8,125.2,68.1,10
0.031000,653.8,89.6,1275.2,123.2,2593.8,637.4,653.4,1241.6,2567.4,125.1,67.7,10.4
0.033000,660.6,107.9,1272.1,114.8,2610.3,694.1,657.7,1244.3,2561.9,124.9,67.3,10.8
0.035000,667.4,121.4,1266.6,114.2,2579.4,638.8,662.7,1247.4,2555.5,124.7,67,11.2
0.037000,673.4,135.9,1260.9,122.8,2537.1,549.1,668.3,1250.9,2548.3,124.5,66.7,11.6
0.039000,678.2,154.7,1254.7,135.0,2508.1,474.7,674.3,1254.7,2540.5,124.4,66.4,12.1
0.041000,683.3,173.7,1250.3,142.6,2498.9,423.1,680.5,1258.7,2532.3,124.2,66.1,12.7
0.043000,692.0,190.9,1250.3,149.2,2504.5,387.0,686.7,1262.8,2523.9,124,65.9,13
0.045000,702.3,205.9,1250.6,160.5,2510.3,372.2,692.9,1267.1,2515.4,123.8,65.6,13
0.047000,709.2,215.0,1245.5,170.9,2509.1,376.9,698.8,1271.3,2507.2,123.7,65.5,12.5
0.049000,711.1,215.9,1238.0,171.4,2503.0,362.6,704.2,1275.3,2499.2,123.5,65.3,11.8
0.051000,710.4,211.0,1233.7,166.3,2497.0,314.1,709,1279.2,2491.9,123.4,65.1,10.8
0.053000,710.6,207.1,1233.1,165.4,2493.7,264.6,713.1,1282.9,2485.1,123.2,65,9.9
0.055000,712.5,205.9,1233.5,166.2,2493.2,239.3,716.4,1286.3,2479.2,123.1,64.8,9.1
0.057000,713.9,204.4,1235.5,161.2,2493.6,239.1,718.7,1289.3,2474.3,122.9,64.6,8.6
0.059000,712.8,202.1,1242.1,155.5,2492.2,249.8,720.1,1292,2470.3,122.8,64.4,8.1
0.061000,709.8,199.9,1253.9,157.3,2490.2,245.4,720.5,1294.4,2467.3,122.7,64.2,7.7
0.063000,706.1,196.0,1270.2,165.2,2492.2,213.8,719.9,1296.3,2465.5,122.6,64,7.4
0.065000,702.4,187.7,1289.9,168.7,2495.6,170.4,718.4,1297.9,2464.7,122.4,63.7,7.4
0.067000,699.7,176.6,1309.8,159.7,2495.8,133.7,715.9,1299.2,2464.8,122.3,63.4,7.7
0.069000,699.1,168.9,1327.3,148.6,2492.3,109.0,712.7,1300.3,2466,122.2,63.1,8.3
0.071000,699.4,172.3,1343.2,148.6,2487.1,93.1,708.9,1301.1,2467.9,122.1,62.9,9
0.073000,697.5,192.8,1357.7,163.4,2481.4,83.6,704.5,1301.7,2470.5,122,62.6,9.6
0.075000,691.7,229.1,1367.1,185.7,2474.8,81.0,699.8,1302.3,2473.7,121.9,62.4,9.8
0.077000,685.0,265.7,1367.3,198.9,2466.6,86.1,694.9,1302.9,2477.3,121.7,62.3,9.5
0.079000,682.6,291.9,1361.0,203.3,2458.5,99.4,690,1303.5,2481.1,121.6,62.2,8.9
0.081000,684.2,309.3,1350.2,217.1,2452.8,121.5,685.4,1304.2,2485,121.4,62.3,8.2
0.083000,687.9,307.4,1333.6,249.7,2451.8,144.5,681.1,1305.1,2488.8,121.3,62.4,7.3
0.085000,692.5,285.9,1311.7,294.0,2454.7,152.6,677.5,1306.2,2492.2,121.1,62.6,6.6
0.087000,698.0,261.9,1289.8,323.6,2459.0,145.5,674.7,1307.7,2495.2,120.9,62.7,5.8
0.089000,701.9,238.6,1280.9,290.2,2463.4,137.6,672.8,1309.5,2497.7,120.7,62.7,4.9
0.091000,704.4,213.8,1287.1,211.3,2466.1,141.1,672,1311.6,2499.4,120.5,62.6,4
0.093000,706.6,195.0,1297.9,154.8,2464.7,162.4,672.4,1314.2,2500.2,120.3,62.4,3.3
0.095000,706.8,195.1,1310.9,135.1,2464.7,202.3,674.2,1317.1,2500.2,120,62.1,2.8
0.097000,702.8,223.9,1325.6,140.2,2477.0,254.7,677.3,1320.4,2499.2,119.8,61.7,2.6
0.099000,688.9,286.3,1335.9,156.1,2498.1,306.9,681.8,1324.1,2497.3,119.5,61.3,2.6
0.101000,662.8,377.6,1336.0,172.8,2514.5,353.7,687.8,1328,2494.4,119.2,60.8,2.7
0.103000,641.5,471.1,1330.2,194.0,2521.9,399.2,695.2,1332.2,2490.6,118.9,60.3,3
0.105000,650.1,533.3,1326.7,229.1,2522.4,435.5,703.9,1336.5,2486,118.5,59.8,3.3
0.107000,687.0,529.7,1327.7,274.9,2517.9,439.2,713.8,1341,2480.6,118.2,59.4,3.9
0.109000,725.0,471.2,1328.5,326.6,2508.4,416.3,725,1345.4,2474.6,117.9,59.1,4.7
0.111000,754.5,407.0,1321.1,398.7,2490.4,391.6,737.1,1349.8,2468.2,117.5,58.7,5.5
0.113000,788.7,354.0,1303.7,529.0,2466.4,386.7,750,1354,2461.4,117.2,58.3,6.1
0.115000,824.5,294.9,1291.8,741.8,2442.6,414.9,763.6,1357.9,2454.5,116.9,58,6.3
0.117000,837.0,248.5,1305.1,910.3,2422.8,471.7,777.8,1361.5,2447.7,116.5,57.7,5.9
0.119000,823.8,252.7,1342.4,792.3,2420.1,541.5,792.2,1364.6,2441.1,116.2,57.2,5
0.121000,792.5,287.7,1387.1,488.2,2442.0,554.6,806.7,1367.2,2434.9,115.9,56.8,3.9
0.123000,769.7,346.5,1415.4,291.6,2467.8,469.7,821.1,1369.2,2429.3,115.6,56.4,2.9
0.125000,767.2,450.3,1426.5,210.7,2487.5,387.3,835.2,1370.6,2424.5,115.3,56,2.1
0.127000,784.5,561.7,1421.1,188.8,2498.9,351.7,848.9,1371.3,2420.6,115,55.6,1.7
0.129000,818.1,612.9,1397.7,193.2,2495.7,335.6,861.9,1371.3,2417.8,114.8,55.4,1.3
0.131000,848.4,606.9,1362.6,188.9,2471.7,302.1,874.2,1370.7,2416.1,0,55.2,1.1
0.133000,860.4,556.9,1337.4,154.5,2428.7,236.8,885.6,1369.5,2415.7,0,55,1
0.135000,862.8,487.8,1333.6,118.6,2381.8,175.4,896,1367.6,2416.5,0,54.9,0.9
0.137000,869.0,455.1,1340.1,102.2,2346.5,147.0,905.3,1365.1,2418.7,0,54.9,4.2
0.139000,883.1,457.8,1352.9,100.9,2331.3,152.0,913.6,1362.2,2422.2,0,54.8,10.7
0.141000,906.7,454.3,1369.5,98.4,2341.4,183.1,920.7,1358.9,2427,0,54.6,15.7
0.143000,941.4,423.2,1380.2,86.0,2377.1,227.6,926.7,1355.3,2433,0,54.5,14.3
0.145000,976.6,357.9,1381.1,70.2,2417.4,254.8,931.7,1351.5,2440.1,0,54.4,1.5
0.147000,997.4,290.4,1377.2,58.9,2440.6,260.1,935.6,1347.7,2448.3,0,54.2,-29.1
0.149000,1001.6,242.1,1372.3,53.6,2447.9,266.7,938.5,1343.9,2457.4,0,53.9,-74.2
0.151000,998.1,212.8,1368.2,53.4,2449.3,295.5,940.6,1340.3,2467.3,0,53.5,-124.2
0.153000,996.5,203.5,1365.2,56.9,2455.5,368.5,941.9,1337,2477.7,0,53,-169.4
0.155000,1001.9,219.5,1360.1,60.4,2477.6,475.6,942.6,1334.2,2488.7,0,52.5,-200
0.157000,1011.0,260.2,1348.6,58.9,2512.2,548.5,942.7,1331.8,2499.9,0,51.9,-212.9
0.159000,1011.8,318.2,1333.7,51.5,2540.9,534.9,942.4,1330.1,2511.2,0,51.3,-214.5
0.161000,990.6,377.3,1322.1,43.0,2562.8,487.9,941.7,1329.1,2522.5,0,50.6,-209.7
0.163000,948.8,412.1,1315.8,39.8,2580.9,453.5,941,1328.8,2533.6,0,49.8,-203.2
0.165000,909.4,426.0,1314.4,46.2,2587.4,443.7,940.1,1329.4,2544.3,0,48.8,-200
0.167000,886.5,446.4,1317.0,66.0,2566.2,459.6,939.2,1330.7,2554.6,0,47.7,-200
0.169000,875.8,468.2,1316.8,91.3,2516.6,486.6,938.4,1332.9,2564.3,0,46.7,-200
0.171000,867.8,444.0,1308.6,94.5,2469.1,494.6,937.8,1335.9,2573.4,0,45.9,-200
0.173000,864.5,363.2,1304.3,78.6,2466.3,508.1,937.5,1339.6,2581.7,0,45.4,-200
0.175000,874.2,290.8,1308.3,65.4,2530.8,569.6,937.3,1344,2589.2,0,45.1,-200
0.177000,893.1,246.7,1317.0,58.4,2644.7,599.9,937.5,1349.1,2596,0,44.9,-200
0.179000,915.3,225.1,1326.8,57.3,2724.2,529.9,937.9,1354.6,2602,0,44.4,-200
0.181000,932.7,217.3,1336.9,62.9,2736.3,477.5,938.6,1360.5,2607.1,0,43.7,-200
0.183000,932.8,210.3,1349.2,73.5,2717.9,492.2,939.5,1366.6,2611.5,0,43,-200
0.185000,918.7,196.8,1366.8,83.6,2690.1,537.4,940.6,1372.8,2615.2,0,42.2,-200
0.187000,907.3,183.2,1385.9,83.1,2664.8,555.9,941.8,1379.1,2618.3,0,41.5,-200
0.189000,910.4,182.2,1397.2,71.5,2645.1,543.8,943.2,1385.1,2620.8,0,41,-200
0.191000,929.2,195.1,1402.9,63.0,2639.5,570.5,944.6,1390.8,2622.7,0,40.7,-200
0.193000,955.4,210.5,1409.0,64.4,2655.6,711.8,945.9,1396.1,2624.2,0,40.5,-200
0.195000,974.7,209.9,1417.9,74.1,2643.8,954.1,947.2,1400.8,2625.4,0,40.3,-200
0.197000,980.3,186.4,1429.0,90.6,2607.6,1112.0,948.3,1404.8,2626.2,0,40.1,-200
0.199000,980.5,154.2,1438.1,118.0,2584.8,1224.9,949.2,1408,2626.8,0,40,-200
0.201000,984.3,133.3,1437.4,160.3,2558.2,1394.9,949.9,1410.4,2627.2,0,39.9,-200
0.203000,991.5,129.4,1421.2,215.2,2522.9,1670.3,950.3,1411.8,2627.4,0,39.9,-200
0.205000,998.2,142.9,1393.1,251.8,2531.1,2028.6,950.5,1412.3,2627.4,0,39.9,-200
