time,f1,b1,f2,b2,f3,b3,f1p,f2p,f3p,f0,intensity,harmonicity
0.025000,645.8,72.1,1258.5,275.4,2488.1,272.4,678.3,1255.8,2427.1,133.9,73.9,9.1
0.027000,645.8,70.0,1248.3,246.6,2455.7,291.3,677.4,1255.7,2423.8,133.7,73.8,9.7
0.029000,646.8,69.8,1242.3,228.0,2419.5,307.7,676,1255.4,2418.4,133.4,73.6,10.4
0.031000,648.6,70.0,1242.8,222.9,2386.0,321.0,674.1,1255,2410.9,133.1,73.4,11.2
0.033000,650.9,73.7,1243.8,240.9,2357.9,338.9,671.7,1254.4,2401.5,132.8,73.2,12
0.035000,654.4,82.5,1238.4,283.0,2323.4,365.4,669,1253.8,2390.3,132.4,73,12.5
0.037000,657.8,89.1,1230.8,318.8,2287.5,386.4,666.1,1253.1,2377.5,132.1,72.7,12.9
0.039000,660.9,91.2,1231.4,335.6,2269.6,411.4,663,1252.3,2363.2,131.7,72.5,13.1
0.041000,664.8,96.0,1240.1,344.5,2288.5,463.9,659.9,1251.4,2347.8,131.4,72.2,13.3
0.043000,669.3,105.6,1247.3,352.5,2330.9,526.6,656.8,1250.5,2331.4,131,71.9,13.4
0.045000,672.6,111.9,1252.9,354.2,2358.4,552.6,654,1249.4,2314.3,130.6,71.7,13.3
0.047000,672.9,112.5,1257.9,347.0,2347.2,548.2,651.6,1248.4,2296.7,130.2,71.4,13.2
0.049000,671.1,116.0,1260.6,330.6,2315.5,552.2,649.5,1247.3,2278.9,129.8,71.2,12.8
0.051000,669.7,122.9,1264.1,305.5,2294.3,563.9,648.1,1246.2,2261.2,129.3,71,12.4
0.053000,670.8,124.7,1273.4,277.7,2292.8,546.2,647.2,1245.2,2243.6,128.9,70.8,12.1
0.055000,674.6,123.0,1285.7,258.6,2294.6,497.1,647.1,1244.1,2226.6,128.5,70.6,11.9
0.057000,679.4,125.3,1292.4,256.7,2280.7,454.3,647.8,1243.1,2210.3,128,70.5,12
0.059000,682.2,128.7,1286.0,258.9,2244.1,424.5,649.3,1242.2,2194.9,127.6,70.3,12.1
0.061000,680.9,123.8,1270.7,242.6,2199.2,386.5,651.6,1241.4,2180.5,127.1,70.1,12.4
0.063000,677.7,115.7,1256.8,218.3,2164.8,336.7,654.7,1240.7,2167.3,126.7,69.9,12.7
0.065000,674.6,115.3,1244.1,207.8,2145.4,295.8,658.7,1240.1,2155.5,126.2,69.8,12.9
0.067000,673.4,120.2,1230.5,210.8,2136.5,268.3,663.4,1239.7,2145,125.8,69.6,13
0.069000,675.7,121.2,1221.2,215.1,2136.9,254.1,668.8,1239.5,2136,125.3,69.5,13.1
0.071000,680.3,119.3,1217.3,219.3,2142.4,261.3,674.9,1239.5,2128.5,124.9,69.4,13.2
0.073000,684.2,120.1,1216.0,228.8,2145.6,298.6,681.4,1239.7,2122.5,124.4,69.4,13.3
0.075000,687.4,118.9,1216.7,237.1,2137.6,353.4,688.3,1240.2,2118,124,69.4,13.3
0.077000,690.8,111.7,1219.6,232.4,2118.9,392.3,695.4,1241,2114.8,123.6,69.4,13.4
0.079000,694.2,105.9,1222.5,220.6,2096.4,424.2,702.6,1242,2113,123.1,69.4,13.4
0.081000,696.4,108.6,1225.8,210.4,2070.2,498.5,709.8,1243.4,2112.5,122.7,69.3,13.5
0.083000,697.9,117.6,1233.8,202.7,2046.4,655.0,716.8,1245.1,2113.1,122.3,69.3,13.5
0.085000,701.1,121.9,1244.1,190.1,2046.8,849.2,723.5,1247.1,2114.7,121.8,69.2,13.4
0.087000,704.8,119.8,1245.1,177.0,2085.1,899.7,729.7,1249.5,2117.1,121.4,69.1,13.2
0.089000,706.5,121.4,1237.6,172.1,2127.7,779.1,735.4,1252.2,2120.4,121,69,13
0.091000,706.6,128.8,1234.1,170.7,2151.0,650.6,740.3,1255.3,2124.2,120.6,68.9,12.7
0.093000,709.5,133.4,1243.9,170.8,2157.4,606.0,744.4,1258.7,2128.5,120.2,68.8,12.4
0.095000,718.1,136.8,1263.1,180.5,2153.8,645.4,747.7,1262.4,2133.2,119.8,68.7,12.1
0.097000,729.3,148.4,1283.8,205.5,2144.7,750.8,750,1266.5,2138.1,119.4,68.5,11.7
0.099000,737.5,167.3,1297.3,233.4,2137.8,838.3,751.4,1270.9,2143.1,119.1,68.4,11.4
0.101000,739.3,180.3,1299.9,242.4,2139.3,817.4,751.9,1275.5,2148.1,118.7,68.3,11
0.103000,737.6,175.8,1296.2,227.9,2137.6,719.5,751.4,1280.5,2153.1,118.3,68.2,10.6
0.105000,736.6,165.7,1287.9,211.4,2114.2,630.0,750.1,1285.6,2157.9,118,68,10.3
0.107000,734.4,161.2,1273.5,197.1,2082.8,538.4,748,1291,2162.6,117.6,67.9,10.1
0.109000,732.0,159.6,1264.4,183.5,2072.6,460.6,745.3,1296.6,2167.1,117.3,67.8,10
0.111000,736.7,155.7,1274.5,179.6,2088.5,434.9,742,1302.3,2171.4,117,67.6,10
0.113000,748.4,151.0,1299.5,185.8,2124.3,459.0,738.4,1308.2,2175.6,116.7,67.5,9.8
0.115000,758.8,149.1,1323.1,193.8,2169.6,510.8,734.5,1314.1,2179.6,116.4,67.3,9.3
0.117000,761.7,151.2,1332.9,202.4,2204.5,598.3,730.7,1320,2183.5,116.1,67.1,8.5
0.119000,760.6,152.9,1337.6,208.9,2233.4,751.8,727,1325.9,2187.4,115.8,66.7,7.4
0.121000,762.9,148.4,1353.2,201.3,2260.7,967.2,723.6,1331.8,2191.3,115.6,66.3,6.2
0.123000,768.7,141.6,1378.8,174.2,2277.2,1191.9,720.8,1337.6,2195.3,115.3,65.8,5.1
0.125000,771.8,143.9,1396.5,144.5,2287.1,1273.6,718.8,1343.2,2199.6,115.1,65.3,4.3
0.127000,767.8,163.7,1399.6,128.8,2299.2,1133.8,717.6,1348.6,2204.1,114.8,64.8,3.8
0.129000,756.3,203.5,1390.2,127.3,2297.6,872.6,717.6,1353.9,2208.9,114.6,64.3,3.6
0.131000,741.5,253.5,1372.0,130.3,2283.6,650.2,718.8,1358.9,2214.2,114.4,63.9,3.4
0.133000,728.2,300.2,1352.3,122.7,2270.7,517.5,721.4,1363.6,2220,114.2,63.7,3.3
0.135000,717.2,348.2,1339.1,102.2,2263.0,455.1,725.5,1368,2226.4,114.1,63.7,3.1
0.137000,711.0,402.5,1333.4,85.0,2260.4,421.0,731.1,1372,2233.3,113.9,63.7,2.7
0.139000,713.8,446.0,1331.8,79.2,2261.1,382.5,738.3,1375.8,2240.9,113.7,63.7,2.3
0.141000,725.6,460.3,1332.3,82.0,2257.8,337.0,747,1379.1,2249,113.6,63.6,1.9
0.143000,744.7,445.1,1335.2,90.8,2247.5,298.1,757.3,1382,2257.8,113.5,63.4,1.5
0.145000,766.5,406.5,1344.3,103.6,2232.5,282.1,769.1,1384.6,2267.1,113.3,63,1.3
0.147000,782.6,340.9,1366.9,114.1,2214.2,300.9,782.3,1386.7,2276.9,0,62.6,1.1
0.149000,786.8,264.2,1396.5,107.4,2198.5,351.3,796.7,1388.5,2287.1,0,62.2,1
0.151000,794.8,203.4,1415.5,89.0,2201.6,384.8,812.2,1389.9,2297.7,0,61.8,0.9
0.153000,815.7,162.7,1420.1,73.3,2232.7,344.2,828.7,1390.8,2308.5,0,61.4,0.9
0.155000,840.7,139.4,1416.3,67.7,2262.7,276.4,845.7,1391.4,2319.4,0,60.9,0.8
0.157000,861.4,128.3,1409.8,72.5,2283.2,238.0,863.3,1391.7,2330.2,0,60.4,0.6
0.159000,872.5,128.0,1403.5,84.8,2299.3,234.5,881,1391.6,2340.8,0,60,0.4
0.161000,876.2,136.2,1397.5,93.5,2314.8,256.1,898.6,1391.2,2351,0,59.6,0.1
0.163000,881.1,155.2,1390.0,90.7,2333.4,304.4,915.9,1390.5,2360.6,0,59.4,-0.1
0.165000,894.2,188.7,1381.4,81.8,2357.4,393.9,932.6,1389.6,2369.6,0,59.3,-0.1
0.167000,916.1,233.2,1374.2,74.0,2386.2,522.3,948.5,1388.4,2377.7,0,59.3,3.3
0.169000,939.0,271.7,1370.2,67.9,2409.5,642.1,963.2,1387,2384.8,0,59.3,10.1
0.171000,955.2,288.6,1370.0,62.5,2418.1,712.5,976.6,1385.5,2390.8,0,59.1,15.4
0.173000,969.0,285.6,1372.9,56.4,2420.2,742.6,988.4,1383.8,2395.5,0,58.8,14.1
0.175000,985.0,267.8,1377.8,50.0,2422.1,744.9,998.5,1382,2398.8,0,58.4,1.5
0.177000,1003.2,245.5,1384.3,45.9,2431.8,756.8,1006.7,1380.1,2400.6,0,57.9,-29
0.179000,1018.1,237.1,1393.8,47.8,2441.0,831.4,1012.9,1378.2,2400.9,0,57.2,-74.1
0.181000,1029.1,256.6,1404.0,57.6,2411.6,937.1,1017,1376.2,2399.7,0,56.6,-124.2
0.183000,1050.6,298.3,1405.9,75.3,2347.4,993.1,1019,1374.2,2396.9,0,56.3,-169.3
0.185000,1073.7,321.4,1392.4,88.2,2312.5,894.5,1018.9,1372.3,2392.7,0,56.2,-200
0.187000,1071.6,300.3,1375.5,81.3,2355.1,706.6,1016.8,1370.4,2386.9,0,56.3,-212.9
0.189000,1048.3,259.0,1364.2,66.3,2428.2,538.7,1012.7,1368.6,2379.8,0,56.3,-214.5
0.191000,1016.6,210.9,1358.0,53.2,2479.5,408.8,1006.7,1366.8,2371.4,0,56.3,-209.7
0.193000,989.3,165.6,1355.9,45.3,2495.1,334.1,999.1,1365.1,2361.9,0,56,-203.2
0.195000,972.6,136.8,1358.6,42.4,2486.3,316.4,990,1363.5,2351.5,0,55.6,-200
0.197000,963.1,131.0,1364.5,40.9,2459.7,350.4,979.6,1362.1,2340.2,0,55,-200
0.199000,956.9,154.3,1367.7,39.0,2416.9,437.1,968.2,1360.7,2328.4,0,54.3,-200
0.201000,956.7,214.5,1364.8,39.6,2360.4,574.9,956,1359.4,2316.2,0,53.6,-200
0.203000,969.8,331.4,1355.0,44.8,2278.0,748.9,943.4,1358.3,2303.9,0,52.9,-200
0.205000,991.0,489.3,1339.8,49.5,2180.2,814.3,930.7,1357.3,2291.7,0,52.4,-200
0.207000,998.3,590.0,1330.5,48.3,2119.8,717.4,918,1356.4,2279.8,0,51.9,-200
0.209000,999.2,586.4,1334.3,48.7,2101.1,637.0,905.8,1355.6,2268.4,0,51.4,-200
0.211000,990.6,559.4,1344.9,52.0,2108.2,650.4,894.2,1354.9,2257.8,0,51,-200
0.213000,960.7,544.1,1355.5,55.4,2139.4,743.7,883.6,1354.3,2248.1,0,50.3,-200
0.215000,911.8,539.2,1360.4,56.5,2198.1,894.8,874.2,1353.8,2239.6,0,49.7,-200
0.217000,851.6,542.7,1356.2,53.0,2278.2,1028.3,866.3,1353.4,2232.5,0,48.9,-200
0.219000,786.7,518.4,1350.2,44.7,2341.0,1030.5,859.8,1353.1,2226.7,0,48.3,-200
0.221000,742.8,457.6,1352.1,38.1,2338.4,952.3,855.1,1352.9,2222.5,0,48,-200
0.223000,730.5,410.3,1362.5,37.1,2272.7,869.4,852.3,1352.7,2220,0,47.8,-200
0.225000,732.3,391.0,1376.1,40.4,2186.5,730.4,851.3,1352.7,2219.1,0,47.8,-200
