time,f1,b1,f2,b2,f3,b3,f1p,f2p,f3p,f0,intensity,harmonicity
0.025000,641.7,82.2,1485.1,345.7,2271.8,115.6,641.3,1442.6,2292.4,136.6,75.2,8.3
0.027000,647.4,79.5,1466.8,288.7,2284.5,114.2,641.7,1442.5,2291.9,136.3,75,8.9
0.029000,652.3,77.5,1460.2,221.7,2295.9,122.0,642.4,1442.3,2291.2,136,74.8,10
0.031000,655.3,75.8,1460.5,174.1,2299.9,147.2,643.3,1442,2290.1,135.7,74.7,11.3
0.033000,657.8,75.9,1461.1,151.6,2297.1,188.8,644.5,1441.7,2288.7,135.4,74.6,12.4
0.035000,660.8,77.7,1458.9,145.6,2292.6,238.8,645.9,1441.2,2287.1,135.1,74.5,13
0.037000,663.2,79.1,1453.5,146.4,2295.0,287.0,647.5,1440.7,2285.2,134.7,74.4,12.9
0.039000,665.2,80.8,1447.2,145.2,2305.0,332.3,649.4,1440,2283,134.4,74.4,12.3
0.041000,666.4,84.2,1443.0,146.6,2313.2,375.4,651.4,1439.2,2280.7,134,74.3,11.6
0.043000,664.7,86.1,1440.3,162.0,2307.4,409.9,653.7,1438.4,2278.1,133.7,74.2,10.8
0.045000,660.1,84.2,1435.4,193.6,2287.8,433.3,656.1,1437.3,2275.4,133.3,74,10.3
0.047000,654.4,82.4,1424.2,223.6,2266.1,430.0,658.7,1436.2,2272.5,132.9,73.8,10.1
0.049000,649.0,84.1,1405.7,216.7,2255.1,390.8,661.5,1434.9,2269.5,132.6,73.6,9.9
0.051000,645.9,86.9,1392.0,176.9,2255.1,340.8,664.4,1433.5,2266.5,132.2,73.4,9.9
0.053000,646.7,88.6,1391.2,144.3,2256.5,315.0,667.5,1431.9,2263.4,131.8,73.3,10
0.055000,649.5,92.3,1397.4,127.6,2253.2,317.5,670.7,1430.2,2260.3,131.4,73.1,10.2
0.057000,653.1,99.0,1403.9,123.5,2243.1,326.4,674,1428.4,2257.2,131,73,10.8
0.059000,657.5,104.6,1406.2,124.7,2230.1,314.3,677.5,1426.4,2254.2,130.7,72.9,11.6
0.061000,662.4,108.6,1404.9,126.0,2221.4,287.8,681.1,1424.3,2251.3,130.3,72.8,12.5
0.063000,666.5,115.6,1402.1,128.0,2219.9,271.6,684.9,1422.1,2248.6,129.9,72.7,13.4
0.065000,670.4,126.4,1398.1,132.4,2222.1,265.7,688.8,1419.7,2246,129.5,72.6,14.2
0.067000,676.0,136.0,1393.9,137.8,2225.5,261.8,692.8,1417.3,2243.7,129.1,72.5,14.8
0.069000,685.0,143.1,1393.4,143.4,2229.9,261.8,697.1,1414.7,2241.6,128.7,72.3,15.4
0.071000,697.6,150.0,1399.6,149.6,2236.9,274.8,701.5,1412.1,2239.8,128.3,72.2,15.8
0.073000,707.1,153.4,1408.3,155.8,2247.5,298.3,706,1409.4,2238.4,127.9,72.1,16.1
0.075000,708.9,153.5,1413.8,163.9,2256.6,321.0,710.8,1406.7,2237.3,127.5,72.1,15.9
0.077000,706.7,153.9,1415.8,172.5,2257.7,340.9,715.7,1403.9,2236.5,127.2,72,15.1
0.079000,706.1,157.2,1416.4,179.0,2253.3,361.6,720.9,1401.1,2236.2,126.8,72,13.7
0.081000,708.3,163.1,1414.2,184.6,2247.2,374.2,726.2,1398.3,2236.2,126.4,72,12.2
0.083000,715.1,169.3,1408.1,186.9,2238.1,360.5,731.7,1395.5,2236.6,126,72,11
0.085000,729.7,176.5,1401.6,181.3,2226.5,323.8,737.4,1392.8,2237.4,125.6,72,10.3
0.087000,751.3,183.9,1398.3,166.5,2216.9,276.6,743.2,1390,2238.6,125.2,72,10.6
0.089000,773.5,188.6,1397.9,148.7,2213.2,234.9,749.1,1387.3,2240.1,124.8,71.9,11.6
0.091000,791.0,189.6,1401.9,135.2,2218.4,210.6,755.1,1384.6,2241.9,124.4,71.8,12.8
0.093000,802.9,185.6,1411.7,128.7,2231.2,205.3,761.1,1382,2244.1,124,71.7,13.8
0.095000,810.5,179.7,1421.8,126.9,2247.1,212.4,767.2,1379.4,2246.5,123.5,71.6,14.2
0.097000,813.7,180.8,1423.7,130.0,2263.3,230.0,773.2,1376.8,2249,123.1,71.5,13.7
0.099000,815.8,191.7,1412.9,134.9,2281.0,248.8,779.1,1374.3,2251.8,122.7,71.5,12.6
0.101000,821.0,202.5,1393.9,130.1,2297.5,245.2,784.8,1371.8,2254.6,122.3,71.5,11.2
0.103000,826.3,205.3,1377.6,115.0,2305.3,223.7,790.2,1369.2,2257.4,121.9,71.5,9.9
0.105000,826.9,207.0,1364.0,97.3,2305.9,202.0,795.3,1366.7,2260.2,121.5,71.5,9
0.107000,823.3,210.5,1353.7,81.6,2302.5,185.6,800,1364.1,2262.8,121.1,71.5,8.5
0.109000,821.5,210.8,1349.5,71.4,2298.1,173.9,804.1,1361.4,2265.3,120.7,71.5,8.1
0.111000,823.2,205.4,1350.5,68.4,2294.1,166.4,807.7,1358.6,2267.4,120.3,71.5,7.9
0.113000,821.5,202.2,1352.1,72.4,2289.8,166.3,810.5,1355.8,2269.1,119.8,71.4,7.8
0.115000,812.5,206.6,1351.7,82.5,2284.7,173.4,812.6,1352.8,2270.4,119.4,71.3,7.7
0.117000,797.1,214.9,1348.4,94.7,2281.0,187.4,813.9,1349.6,2271.2,119,71.1,7.7
0.119000,778.7,216.9,1341.9,99.6,2278.3,210.9,814.2,1346.2,2271.4,118.6,71,7.8
0.121000,761.2,211.7,1333.6,96.2,2271.0,246.4,813.5,1342.7,2270.9,118.2,70.8,7.9
0.123000,746.0,207.9,1325.4,95.2,2252.0,293.7,811.7,1338.9,2269.7,117.8,70.5,8
0.125000,732.5,207.9,1316.2,104.3,2214.7,351.2,808.9,1334.9,2267.7,117.5,70.3,8.1
0.127000,724.9,209.7,1306.6,122.6,2172.5,394.8,804.8,1330.6,2264.9,117.1,70,8
0.129000,722.5,213.1,1299.1,138.6,2152.0,415.3,799.7,1326.2,2261.2,116.7,69.7,7.9
0.131000,721.1,219.0,1292.9,147.2,2161.3,413.1,793.3,1321.4,2256.7,116.3,69.4,7.7
0.133000,723.4,225.9,1286.5,156.8,2195.7,365.3,785.8,1316.5,2251.3,116,69.2,7.4
0.135000,734.8,227.4,1281.8,174.9,2229.8,282.9,777.1,1311.3,2245.1,115.6,68.9,7.1
0.137000,752.2,220.5,1285.5,189.1,2245.9,214.8,767.4,1306,2238,115.3,68.7,6.5
0.139000,771.1,206.6,1299.6,184.1,2247.4,171.1,756.7,1300.5,2230.1,114.9,68.4,5.8
0.141000,784.0,184.1,1315.0,171.0,2242.5,155.4,745.1,1294.9,2221.5,114.6,68.2,5.1
0.143000,783.3,165.2,1323.1,181.7,2234.1,189.0,732.6,1289.3,2212.2,114.3,68,4.4
0.145000,775.9,159.9,1317.3,224.9,2217.5,305.2,719.5,1283.6,2202.3,114,67.9,3.9
0.147000,762.0,172.7,1284.5,262.9,2179.1,535.4,705.9,1278.1,2191.9,113.7,67.8,3.5
0.149000,743.5,188.0,1250.2,224.7,2125.3,721.7,691.9,1272.7,2181,113.4,67.7,3.2
0.151000,728.9,202.1,1238.2,166.0,2133.1,741.7,677.7,1267.4,2170,113.1,67.6,3.1
0.153000,723.2,215.6,1234.1,137.2,2167.3,699.8,663.5,1262.5,2158.7,112.9,67.4,2.9
0.155000,723.4,228.6,1229.7,129.6,2188.7,642.8,649.4,1258,2147.4,112.6,67,2.8
0.157000,722.8,249.6,1223.9,136.6,2190.8,581.8,635.8,1253.9,2136.2,112.4,66.6,2.5
0.159000,715.3,299.2,1218.7,158.6,2187.5,533.9,622.9,1250.4,2125.3,112.1,66.1,2.3
0.161000,693.5,409.7,1221.7,199.9,2196.5,520.3,610.7,1247.5,2114.8,111.9,65.4,2.1
0.163000,658.5,559.1,1248.9,232.8,2221.3,523.4,599.6,1245.4,2104.9,111.7,64.6,2
0.165000,591.5,647.1,1287.9,200.4,2229.4,516.9,589.8,1244.1,2095.6,111.5,63.9,2.1
0.167000,499.3,584.5,1301.4,135.2,2179.9,510.7,581.4,1243.7,2087.1,111.3,63.2,5.8
0.169000,457.4,533.1,1303.8,93.5,2117.5,454.9,574.6,1244.2,2079.7,111.1,62.5,13.1
0.171000,448.6,514.5,1303.4,78.2,2076.3,413.1,569.7,1245.8,2073.3,110.9,61.8,18.8
0.173000,456.0,490.2,1301.0,79.8,2043.7,386.4,566.7,1248.5,2068.1,110.7,61,17.8
0.175000,472.4,463.3,1294.6,92.6,2014.7,324.1,565.8,1252.3,2064.1,110.5,60,5.2
0.177000,501.3,440.8,1282.3,112.7,1998.9,229.9,567.2,1257.3,2061.6,110.4,58.9,-25.8
0.179000,541.5,422.5,1268.9,132.0,1997.2,159.9,570.8,1263.4,2060.5,110.2,57.8,-71.8
0.181000,579.4,402.6,1267.8,140.1,2002.4,131.4,576.7,1270.8,2060.8,110.1,56.7,-122.7
0.183000,601.1,393.2,1288.5,130.6,2010.3,141.1,585,1279.3,2062.7,109.9,55.4,-168.8
0.185000,614.1,408.7,1320.7,104.6,2020.9,182.3,595.6,1289,2066.1,109.8,54.2,-200
0.187000,625.2,461.4,1343.9,75.5,2029.4,249.3,608.5,1299.7,2070.9,0,53.2,-213.1
0.189000,639.6,560.9,1352.5,58.4,2021.7,336.2,623.7,1311.6,2077.2,0,52.6,-214.8
0.191000,663.3,697.9,1350.7,55.2,1994.4,410.8,640.9,1324.4,2085,0,51.8,-209.8
0.193000,693.1,790.0,1343.0,62.2,1985.7,418.4,660.2,1338.1,2094,0,50.5,-203.3
0.195000,715.2,811.3,1332.8,77.3,2009.2,380.5,681.2,1352.7,2104.3,0,49.5,-200
0.197000,724.3,751.5,1326.7,97.3,2042.5,329.5,703.8,1367.9,2115.6,0,48.5,-200
0.199000,738.8,596.1,1334.9,113.1,2074.2,292.1,727.8,1383.6,2127.9,0,47.5,-200
0.201000,771.8,407.6,1354.0,116.1,2112.9,285.5,753,1399.8,2141.1,0,46.4,-200
0.203000,812.6,271.9,1368.8,108.6,2169.9,316.6,779,1416.3,2154.9,0,45.7,-200
0.205000,843.2,189.9,1378.3,91.4,2260.3,374.4,805.5,1432.8,2169.2,0,45.1,-200
0.207000,858.0,152.0,1382.9,71.5,2366.3,421.5,832.3,1449.4,2183.8,0,44.5,-200
0.209000,860.4,148.3,1382.4,60.1,2413.1,447.0,859,1465.7,2198.4,0,43.7,-200
0.211000,850.9,170.9,1376.6,56.9,2356.3,441.0,885.4,1481.6,2213,0,43.3,-200
0.213000,833.4,215.0,1369.6,58.6,2291.8,379.2,911.1,1497,2227.3,0,42.8,-200
0.215000,827.0,321.0,1366.2,77.8,2281.8,375.3,935.8,1511.7,2241.2,0,42.4,-200
0.217000,900.8,530.2,1362.3,172.2,2311.4,491.0,959.2,1525.5,2254.3,0,42.6,-200
0.219000,1088.7,336.1,1411.2,646.3,2318.9,663.0,981,1538.4,2266.7,0,43.2,-200
0.221000,1066.3,125.7,1716.5,798.2,2317.0,825.1,1000.9,1550,2278,0,44,-200
0.223000,1064.9,77.9,1816.3,701.3,2341.2,879.8,1018.8,1560.4,2288.1,0,44.7,-200
0.225000,1069.4,62.6,1831.6,683.3,2342.0,859.7,1034.2,1569.4,2296.9,0,45.2,-200
0.227000,1075.0,56.9,1826.5,723.4,2321.3,835.8,1047.2,1577,2304.3,0,45.2,-200
0.229000,1080.5,56.2,1812.1,824.6,2281.5,818.3,1057.5,1582.9,2310.2,0,44.9,-200
0.231000,1086.0,63.2,1764.1,1108.6,2206.8,757.5,1064.9,1587.2,2314.5,0,44.2,-200
0.233000,1093.0,84.6,1515.4,1694.8,2149.6,625.8,1069.4,1589.8,2317,0,43.2,-200
0.235000,886.1,2153.3,1106.4,119.1,2114.9,579.2,1070.9,1590.6,2317.9,0,42,-200
