time,f1,b1,f2,b2,f3,b3,f1p,f2p,f3p,f0,intensity,harmonicity
0.026000,599.1,39.4,1261.5,125.3,2239.2,334.5,632.8,1253.8,2201.7,141.6,70.5,4.4
0.028000,606.1,41.9,1255.5,137.0,2237.1,288.5,633.3,1253.3,2203.1,141.2,70.3,4.1
0.030000,612.9,48.1,1249.6,148.8,2237.2,246.9,634.2,1252.5,2205.5,140.8,70.1,3.8
0.032000,621.7,56.5,1245.4,159.4,2239.9,210.1,635.4,1251.4,2208.6,140.4,69.9,3.7
0.034000,633.5,62.4,1242.5,167.9,2241.3,177.5,636.9,1250.1,2212.4,139.9,69.8,3.9
0.036000,645.1,62.5,1240.9,168.0,2237.3,148.8,638.6,1248.5,2216.7,139.5,69.8,4.8
0.038000,652.8,58.2,1241.3,155.5,2229.4,128.1,640.6,1246.9,2221.2,139,69.9,6.5
0.040000,658.4,53.1,1242.3,136.1,2220.6,113.6,642.8,1245.1,2225.8,138.5,70.1,8.7
0.042000,663.1,49.6,1241.7,118.4,2211.9,104.1,645.1,1243.3,2230.2,138,70.3,10.8
0.044000,666.5,48.2,1239.7,107.7,2202.3,98.4,647.5,1241.5,2234.2,137.5,70.4,12.4
0.046000,668.6,48.2,1239.4,107.1,2191.2,97.5,650.1,1239.9,2237.6,137,70.5,13
0.048000,669.7,49.3,1242.4,117.2,2182.6,103.2,652.6,1238.4,2240.1,136.4,70.5,12.7
0.050000,670.6,50.8,1246.4,134.1,2179.5,116.1,655.2,1237.2,2241.6,135.9,70.5,11.9
0.052000,670.9,52.5,1248.2,152.1,2183.7,137.1,657.7,1236.2,2242,135.4,70.4,11
0.054000,670.6,54.5,1248.2,166.0,2196.0,164.1,660.2,1235.6,2241,134.9,70.3,10.3
0.056000,670.6,56.6,1247.8,171.4,2211.7,186.7,662.7,1235.3,2238.6,134.4,70.2,10.1
0.058000,670.7,58.0,1245.6,168.0,2220.1,194.2,665,1235.3,2234.8,133.8,70.1,10.2
0.060000,670.2,58.7,1241.0,161.4,2222.7,194.9,667.3,1235.8,2229.6,133.3,69.8,10.5
0.062000,669.2,60.1,1235.8,156.4,2227.2,198.8,669.4,1236.6,2223.1,132.8,69.6,10.9
0.064000,668.1,63.3,1230.2,153.7,2235.5,207.9,671.5,1237.8,2215.3,132.3,69.3,11.2
0.066000,667.0,68.1,1224.7,148.8,2239.9,222.1,673.5,1239.3,2206.4,131.8,69,11.3
0.068000,666.4,72.5,1225.6,141.7,2231.3,243.0,675.4,1241.2,2196.6,131.3,68.6,11.3
0.070000,667.3,76.9,1235.9,135.6,2211.0,262.1,677.3,1243.3,2186.1,130.8,68.2,11.3
0.072000,669.2,81.1,1248.1,130.6,2192.3,257.2,679.1,1245.6,2175.1,130.3,67.9,11.2
0.074000,670.7,83.6,1254.0,127.0,2182.3,233.5,681,1248,2164,129.8,67.6,11
0.076000,671.5,85.0,1253.3,126.4,2178.6,213.0,682.8,1250.6,2152.9,129.3,67.2,10.6
0.078000,673.2,89.1,1250.7,126.2,2178.6,208.0,684.7,1253.1,2142.2,128.9,66.8,10
0.080000,676.5,98.1,1249.4,124.3,2178.3,217.4,686.6,1255.6,2132.1,128.4,66.4,9.2
0.082000,680.2,110.0,1248.3,123.4,2173.0,241.0,688.5,1258,2122.9,128,66,8.4
0.084000,682.2,119.1,1248.9,124.3,2157.4,283.2,690.5,1260.3,2114.9,127.5,65.6,7.7
0.086000,682.5,122.8,1257.8,124.0,2122.4,344.1,692.6,1262.3,2108.1,127.1,65.3,7.3
0.088000,682.0,123.7,1271.9,118.6,2080.7,372.5,694.7,1264.1,2102.8,126.7,65,7
0.090000,681.7,123.9,1280.6,111.1,2062.1,349.4,696.9,1265.5,2099.1,126.3,64.9,6.8
0.092000,685.8,125.1,1278.1,109.7,2063.8,327.7,699.1,1266.6,2097.1,126,64.9,6.7
0.094000,696.8,126.5,1268.8,114.7,2068.0,332.6,701.3,1267.4,2096.7,125.6,64.9,6.8
0.096000,712.1,127.0,1263.6,121.1,2069.6,347.2,703.5,1267.9,2098.1,125.3,64.8,7
0.098000,724.9,127.1,1266.0,125.8,2073.0,337.7,705.6,1268,2101.1,124.9,64.7,7.4
0.100000,732.0,128.0,1268.3,130.5,2080.1,303.0,707.7,1267.8,2105.5,124.6,64.6,8.1
0.102000,735.0,132.3,1265.4,141.8,2090.4,271.9,709.7,1267.3,2111.4,124.3,64.4,8.7
0.104000,737.4,137.2,1259.6,161.7,2099.8,259.4,711.5,1266.6,2118.4,124.1,64.3,9.2
0.106000,738.5,136.2,1257.4,179.6,2104.5,266.0,713.2,1265.7,2126.3,123.8,64.2,9.4
0.108000,737.0,132.4,1262.2,185.9,2112.4,285.1,714.7,1264.7,2135.1,123.6,64.1,9.6
0.110000,735.1,133.6,1269.7,188.1,2134.5,309.9,716,1263.6,2144.3,123.3,64,9.6
0.112000,733.5,141.4,1274.6,191.2,2166.4,317.6,717.1,1262.4,2153.8,123.1,64,9.6
0.114000,730.4,150.9,1274.2,193.9,2188.0,292.9,718,1261.4,2163.3,122.9,63.9,9.4
0.116000,724.6,157.0,1269.4,192.6,2195.9,258.8,718.6,1260.4,2172.6,122.8,63.9,9.2
0.118000,718.8,159.3,1264.0,189.3,2204.5,237.6,719.1,1259.7,2181.6,122.6,63.8,8.9
0.120000,712.6,159.5,1261.0,188.4,2220.6,221.1,719.5,1259.2,2190,122.4,63.7,8.4
0.122000,701.4,154.5,1261.3,188.7,2232.4,197.2,719.7,1258.9,2197.8,122.3,63.7,7.9
0.124000,685.6,143.7,1262.0,184.5,2228.6,169.5,720,1259,2204.8,122.1,63.6,7.4
0.126000,670.8,134.6,1258.3,171.7,2213.1,146.5,720.2,1259.5,2211,122,63.5,6.8
0.128000,663.3,137.5,1250.2,158.2,2196.5,138.4,720.6,1260.4,2216.4,121.9,63.4,6.2
0.130000,665.1,154.7,1243.7,152.6,2184.4,151.6,721.1,1261.7,2221.1,121.8,63.2,5.5
0.132000,679.6,174.6,1244.9,155.4,2181.1,189.3,721.9,1263.4,2225.1,121.7,63.1,4.8
0.134000,704.5,178.3,1253.8,160.9,2189.6,242.4,723.1,1265.4,2228.6,121.6,63.1,4
0.136000,731.4,170.5,1265.6,171.9,2210.6,300.4,724.8,1267.9,2231.8,121.5,63,3.1
0.138000,754.4,168.2,1276.9,198.2,2240.9,339.0,727,1270.7,2234.8,121.4,63,2
0.140000,773.1,167.5,1285.1,240.6,2266.1,335.8,729.9,1273.9,2237.9,121.3,63,0.7
0.142000,785.0,159.4,1286.8,281.2,2274.5,297.4,733.5,1277.3,2241.4,121.2,62.9,-0.4
0.144000,789.8,145.6,1284.6,286.9,2273.7,252.4,738,1280.9,2245.3,121.1,62.7,-1.1
0.146000,789.0,134.6,1283.2,244.0,2271.0,224.9,743.4,1284.7,2250.1,121,62.5,-1.2
0.148000,784.7,136.7,1281.6,197.8,2270.2,235.6,749.6,1288.5,2255.8,121,62.2,-0.6
0.150000,779.3,154.3,1279.4,180.4,2278.3,293.8,756.9,1292.5,2262.7,120.9,61.9,0.4
0.152000,775.9,173.5,1281.3,183.0,2300.1,380.9,765.1,1296.4,2271,120.8,61.6,1.5
0.154000,773.1,175.7,1294.6,168.6,2317.3,442.6,774.2,1300.2,2280.7,120.8,61.3,2.2
0.156000,767.7,173.2,1315.5,123.4,2314.4,448.6,784.2,1304,2292,120.7,61,2.3
0.158000,762.3,194.5,1329.0,88.8,2308.3,418.0,795.1,1307.6,2304.8,120.7,60.7,1.9
0.160000,760.8,245.7,1335.0,73.2,2310.5,378.5,806.8,1310.9,2319.2,0,60.4,1.2
0.162000,770.5,298.0,1335.5,68.9,2315.1,349.3,819.1,1314.1,2335.1,0,60,0.4
0.164000,792.8,308.4,1330.7,70.7,2321.7,351.4,832,1316.9,2352.3,0,59.6,-0.2
0.166000,826.3,278.0,1320.7,75.7,2332.4,368.9,845.3,1319.5,2370.6,0,59.2,0.5
0.168000,855.7,246.6,1310.9,81.0,2342.0,371.3,858.8,1321.8,2389.8,0,58.7,6
0.170000,874.6,231.2,1306.2,87.2,2355.1,358.8,872.3,1323.9,2409.6,0,58.1,12.4
0.172000,887.7,225.9,1310.5,94.2,2376.3,339.2,885.7,1325.6,2429.7,0,57.4,14.9
0.174000,897.6,224.0,1323.5,98.6,2404.9,336.8,898.8,1327.1,2449.8,0,56.5,8.5
0.176000,910.2,234.9,1337.8,99.1,2446.4,364.9,911.4,1328.4,2469.4,0,55.5,-12.4
0.178000,943.2,276.3,1337.6,100.8,2495.4,389.5,923.3,1329.4,2488.3,0,54.5,-51.3
0.180000,999.2,346.9,1318.0,103.8,2539.7,374.8,934.3,1330.2,2505.9,0,53.3,-99.8
0.182000,1033.1,417.7,1295.6,93.5,2564.7,326.1,944.2,1330.8,2522.1,0,52.2,-148.3
0.184000,1010.8,433.1,1291.6,82.4,2573.5,288.5,952.9,1331.3,2536.4,0,51.3,-187.2
0.186000,970.5,368.1,1307.6,87.6,2574.2,286.4,960.2,1331.7,2548.6,0,50.5,-208.1
0.188000,944.8,296.4,1333.9,96.4,2571.8,311.2,966,1331.9,2558.3,0,49.7,-214.7
0.190000,928.5,251.5,1356.4,96.5,2570.3,348.8,970.3,1332.1,2565.4,0,48.9,-212.5
0.192000,920.8,240.7,1365.3,91.3,2574.0,400.0,972.9,1332.2,2569.8,0,48.1,-206.3
0.194000,927.0,271.0,1361.5,88.4,2581.4,463.0,973.7,1332.2,2571.2,0,47.3,-200.9
