time,f1,b1,f2,b2,f3,b3,f1p,f2p,f3p,f0,intensity,harmonicity
0.025000,575.9,53.0,1423.2,92.5,2355.6,117.5,613.5,1407.5,2338,135.9,66.7,6.5
0.027000,579.5,63.1,1422.6,80.0,2357.9,119.4,614.6,1407,2338.1,135.8,66.4,6.4
0.029000,585.2,74.8,1425.2,77.2,2358.8,126.9,616.5,1406,2338.2,135.7,65.9,6.3
0.031000,594.9,94.2,1426.6,85.3,2360.4,153.2,619.2,1404.7,2338.4,135.6,65.5,6.2
0.033000,610.0,128.3,1421.3,101.1,2362.2,202.6,622.5,1402.9,2338.6,135.5,65.2,6.1
0.035000,628.9,171.5,1408.1,117.9,2359.1,252.2,626.5,1400.9,2338.9,135.4,65,6
0.037000,650.7,209.5,1389.4,136.5,2346.3,274.5,631,1398.4,2339.1,135.3,65,5.8
0.039000,669.4,215.8,1368.3,153.2,2332.8,257.6,636,1395.5,2339.3,135.2,65.4,5.5
0.041000,677.0,185.4,1352.7,155.9,2331.1,220.6,641.4,1392.3,2339.5,135.1,65.8,5.2
0.043000,677.0,135.6,1344.3,140.0,2336.5,186.0,647.2,1388.8,2339.5,135,66.3,5.1
0.045000,676.1,96.4,1342.9,118.4,2343.3,173.7,653.2,1384.8,2339.5,135,66.9,5.2
0.047000,676.4,73.8,1343.5,103.4,2346.6,177.4,659.4,1380.6,2339.3,134.9,67.5,5.7
0.049000,677.3,61.5,1344.1,98.1,2345.0,185.0,665.5,1376,2339,134.8,67.9,6.4
0.051000,678.8,56.1,1347.7,105.7,2343.3,193.9,671.7,1371.2,2338.5,134.8,68.2,7.3
0.053000,681.8,54.8,1357.6,132.6,2342.4,213.1,677.7,1366,2337.8,134.7,68.4,8.2
0.055000,686.5,55.2,1371.5,175.4,2340.2,236.3,683.5,1360.6,2336.9,134.7,68.5,9.1
0.057000,692.3,56.6,1380.8,215.5,2334.5,241.9,689,1355,2335.8,134.6,68.6,9.9
0.059000,698.4,61.2,1380.0,229.3,2326.5,219.8,694.1,1349.2,2334.5,134.6,68.7,10.8
0.061000,703.1,68.5,1375.3,213.1,2321.5,185.6,698.7,1343.2,2332.9,134.5,68.7,11.7
0.063000,706.0,73.7,1371.9,185.0,2316.0,148.3,702.8,1337.1,2331.1,134.5,68.8,12.5
0.065000,706.7,73.6,1368.9,162.8,2304.6,116.7,706.3,1330.9,2329,134.5,68.8,13.1
0.067000,706.3,72.0,1361.9,150.1,2286.9,93.7,709.2,1324.6,2326.8,134.5,68.7,13.5
0.069000,704.8,70.4,1348.0,143.4,2268.9,80.7,711.5,1318.4,2324.3,134.4,68.6,13.8
0.071000,703.4,67.9,1333.5,139.5,2260.1,77.9,713.2,1312.3,2321.7,134.4,68.5,14
0.073000,703.4,66.1,1323.2,141.4,2262.8,83.7,714.1,1306.3,2319,134.4,68.4,14.1
0.075000,704.5,68.6,1316.3,152.6,2273.3,93.0,714.4,1300.4,2316.2,134.3,68.2,14.3
0.077000,705.1,74.9,1307.1,168.0,2284.5,96.0,714.1,1294.8,2313.3,134.3,68,14.5
0.079000,703.6,80.9,1295.3,177.9,2293.2,88.7,713.2,1289.5,2310.4,134.2,67.8,14.7
0.081000,700.9,84.6,1284.3,177.2,2297.2,78.6,711.8,1284.5,2307.5,134.2,67.7,14.8
0.083000,698.2,87.4,1273.8,168.2,2296.4,70.7,709.8,1279.9,2304.8,134.1,67.6,14.9
0.085000,696.4,86.3,1264.1,153.1,2294.6,65.9,707.4,1275.7,2302.1,134,67.6,14.9
0.087000,694.2,80.0,1253.8,132.5,2295.7,64.3,704.7,1272,2299.7,133.9,67.6,14.8
0.089000,691.7,72.1,1243.4,110.3,2301.0,69.8,701.7,1268.9,2297.5,133.8,67.7,14.5
0.091000,690.7,65.9,1237.8,94.7,2308.4,87.3,698.5,1266.4,2295.6,133.7,67.7,14.2
0.093000,691.4,60.4,1237.9,87.0,2313.4,116.4,695.2,1264.5,2294.1,133.5,67.6,13.9
0.095000,692.0,56.8,1239.2,88.4,2312.1,132.8,691.9,1263.2,2292.9,133.4,67.5,13.7
0.097000,691.4,57.1,1237.0,99.4,2309.2,121.6,688.7,1262.6,2292.2,133.2,67.4,13.7
0.099000,690.0,61.1,1230.7,121.0,2309.9,100.5,685.7,1262.7,2292,133,67.3,13.9
0.101000,689.2,64.5,1226.4,144.9,2314.6,91.1,682.9,1263.5,2292.2,132.8,67.1,14
0.103000,689.2,67.4,1229.5,168.9,2326.3,98.8,680.6,1265,2293,132.5,66.9,14.2
0.105000,689.5,70.8,1240.2,185.8,2348.4,122.4,678.7,1267.1,2294.4,132.3,66.8,14.1
0.107000,690.2,72.1,1256.7,187.0,2378.5,157.8,677.3,1270,2296.2,132,66.6,14
0.109000,691.8,71.3,1275.8,179.3,2399.7,208.0,676.6,1273.5,2298.7,131.7,66.5,13.8
0.111000,694.0,73.8,1291.7,183.4,2394.8,258.9,676.5,1277.7,2301.7,131.4,66.3,13.5
0.113000,696.4,81.2,1302.2,203.5,2374.0,282.4,677.1,1282.4,2305.2,131,66,13
0.115000,697.5,87.2,1305.5,225.1,2356.8,273.9,678.5,1287.6,2309.3,130.7,65.7,12.4
0.117000,695.5,87.6,1306.4,232.9,2340.7,253.9,680.7,1293.4,2313.8,130.3,65.3,11.4
0.119000,689.8,85.8,1312.0,221.3,2320.3,229.1,683.8,1299.5,2318.8,130,64.9,10
0.121000,683.4,86.6,1320.7,200.6,2304.5,200.5,687.6,1306,2324.1,129.6,64.5,8.6
0.123000,680.1,91.2,1326.1,183.3,2301.2,176.4,692.3,1312.8,2329.9,129.2,64,7.3
0.125000,681.5,100.7,1327.2,180.8,2309.8,173.6,697.7,1319.7,2335.9,128.8,63.5,6.3
0.127000,684.2,121.9,1330.4,197.4,2328.3,196.0,703.9,1326.8,2342.2,128.4,63,5.8
0.129000,685.2,162.6,1341.6,235.6,2346.9,224.2,710.9,1334,2348.6,128,62.4,5.5
0.131000,687.8,212.3,1358.2,286.4,2344.0,218.6,718.5,1341,2355.2,127.6,61.8,5.4
0.133000,701.9,254.8,1379.4,338.8,2323.2,192.4,726.8,1348,2361.8,127.2,61.3,5.3
0.135000,727.8,276.8,1405.0,359.3,2301.5,177.3,735.6,1354.7,2368.4,126.8,61,5
0.137000,757.3,295.5,1427.7,341.3,2285.0,182.4,744.9,1361.1,2374.9,126.5,60.8,4.4
0.139000,780.2,333.5,1428.2,294.6,2275.4,208.9,754.6,1367.2,2381.2,126.1,60.7,3.8
0.141000,790.5,384.7,1406.7,233.8,2275.8,256.3,764.6,1372.9,2387.4,125.7,60.8,3
0.143000,801.0,420.1,1387.4,181.7,2294.1,336.4,774.9,1378,2393.3,125.4,61,2.3
0.145000,816.4,422.9,1380.4,158.2,2330.8,420.6,785.2,1382.6,2398.9,125,61.1,1.8
0.147000,825.7,408.0,1378.4,151.8,2371.8,462.4,795.7,1386.6,2404.2,0,61,4.6
0.149000,824.0,390.4,1376.3,155.1,2407.5,450.0,806,1390,2409.1,0,60.7,10.7
0.151000,818.1,381.4,1372.9,161.3,2440.6,403.7,816.3,1392.7,2413.6,0,60.2,15.2
0.153000,812.9,380.7,1366.1,151.3,2472.5,344.7,826.4,1394.8,2417.7,0,59.5,13.4
0.155000,811.1,376.5,1356.1,114.6,2485.5,308.4,836.1,1396.1,2421.5,0,58.6,0.4
0.157000,820.0,367.8,1347.9,82.0,2478.2,288.3,845.5,1396.8,2424.9,0,57.6,-30.1
0.159000,825.2,380.4,1342.4,68.7,2467.2,268.3,854.5,1396.9,2427.9,0,56.5,-75
0.161000,810.4,395.2,1340.8,68.6,2453.8,259.6,863.1,1396.3,2430.7,0,55.5,-124.7
0.163000,796.0,362.6,1346.3,73.9,2431.4,254.1,871.1,1395.1,2433.1,0,54.6,-169.6
0.165000,806.1,310.6,1356.4,78.0,2412.3,239.3,878.5,1393.4,2435.4,0,53.7,-200
0.167000,836.3,278.8,1362.0,78.6,2402.1,223.2,885.4,1391.1,2437.5,0,52.7,-212.8
0.169000,881.8,279.4,1359.1,81.0,2402.4,219.3,891.7,1388.5,2439.5,0,51.8,-214.4
0.171000,932.0,303.4,1351.8,85.2,2414.3,232.6,897.4,1385.5,2441.5,0,51,-209.6
0.173000,977.9,320.9,1351.0,80.5,2439.9,256.2,902.6,1382.3,2443.6,0,50.4,-203.2
0.175000,1001.9,307.9,1363.6,65.3,2471.1,271.5,907.1,1378.9,2445.9,0,49.8,-200
0.177000,1005.7,294.9,1380.2,49.6,2498.7,272.5,911.1,1375.4,2448.5,0,49.4,-200
0.179000,994.8,305.5,1394.4,38.6,2517.8,262.2,914.6,1372,2451.4,0,48.8,-200
0.181000,978.7,330.7,1403.3,34.1,2524.6,248.3,917.6,1368.6,2454.8,0,48.2,-200
0.183000,965.7,337.7,1407.9,36.9,2522.0,238.6,920.2,1365.5,2458.8,0,47.4,-200
0.185000,953.5,312.3,1409.1,49.1,2517.7,248.2,922.4,1362.6,2463.4,0,46.6,-200
0.187000,932.3,287.8,1408.1,73.0,2518.4,296.4,924.2,1360.2,2468.8,0,45.8,-200
0.189000,900.1,278.6,1404.8,95.2,2523.3,388.1,925.8,1358.2,2474.9,0,45,-200
0.191000,861.3,271.4,1399.9,87.0,2520.7,470.9,927.2,1356.8,2481.9,0,44.6,-200
0.193000,819.5,262.3,1394.8,61.4,2505.9,508.7,928.4,1356,2489.9,0,44.6,-200
0.195000,787.5,267.5,1390.9,42.2,2490.0,510.6,929.5,1355.9,2498.8,0,44.7,-200
0.197000,775.8,298.9,1387.6,34.0,2479.6,519.5,930.6,1356.5,2508.8,0,44.8,-200
0.199000,806.9,348.2,1383.9,36.9,2486.3,578.0,931.7,1358,2519.8,0,44.8,-200
0.201000,879.6,359.4,1381.2,50.2,2535.6,667.8,932.9,1360.2,2531.8,0,44.7,-200
0.203000,950.1,305.4,1380.0,67.9,2605.3,704.6,934.2,1363.3,2544.8,0,44.6,-200
0.205000,982.6,249.7,1377.3,77.5,2626.5,756.6,935.6,1367.2,2558.9,0,44.6,-200
0.207000,1001.0,227.5,1375.0,81.3,2632.0,913.0,937.2,1372,2573.9,0,44.5,-200
0.209000,1027.2,236.2,1379.4,84.2,2635.4,1245.1,939.1,1377.5,2589.8,0,44.4,-200
0.211000,1066.4,263.5,1386.0,88.5,2585.0,1671.3,941.1,1383.9,2606.6,0,44.3,-200
0.213000,1109.0,298.5,1385.5,94.3,2476.4,1833.0,943.4,1390.9,2624.1,0,44.1,-200
0.215000,1120.4,330.9,1377.4,92.1,2462.2,1560.6,946,1398.6,2642.2,0,43.8,-200
0.217000,1082.5,347.7,1370.4,77.8,2481.8,1120.7,948.7,1407,2660.8,0,43.2,-200
0.219000,1014.2,326.7,1372.7,64.4,2530.4,804.8,951.7,1415.8,2679.8,0,42.4,-200
0.221000,956.6,287.5,1390.2,59.8,2637.7,602.5,954.9,1425,2699.1,0,41.4,-200
0.223000,910.3,249.2,1423.5,56.2,2724.6,436.2,958.3,1434.6,2718.4,0,40.3,-200
0.225000,883.6,229.8,1449.4,51.3,2762.8,363.0,961.7,1444.4,2737.7,0,39.3,-200
0.227000,883.2,232.5,1453.3,51.7,2782.7,376.9,965.3,1454.2,2756.8,0,38.5,-200
0.229000,892.7,232.2,1436.2,54.3,2797.7,461.0,969,1464.1,2775.5,0,38,-200
0.231000,887.9,207.1,1414.0,49.5,2803.1,548.1,972.6,1473.8,2793.6,0,37.7,-200
0.233000,874.4,168.5,1403.5,39.6,2803.0,585.2,976.2,1483.3,2811,0,37.6,-200
0.235000,864.5,143.9,1410.7,32.2,2817.9,574.7,979.7,1492.5,2827.5,0,37.5,-200
0.237000,856.3,136.7,1425.9,27.0,2846.6,522.1,983.1,1501.1,2843,0,37.5,-200
0.239000,848.7,147.5,1439.8,25.5,2868.1,474.2,986.3,1509.2,2857.3,0,37.5,-200
0.241000,847.5,181.5,1448.9,32.6,2872.2,500.5,989.2,1516.5,2870.3,0,37.4,-200
0.243000,864.5,252.2,1456.3,61.4,2847.3,609.0,991.8,1523.1,2881.8,0,37.3,-200
0.245000,906.9,348.5,1462.1,134.5,2792.4,800.1,994.1,1528.9,2891.8,0,37.1,-200
0.247000,993.1,452.3,1463.7,298.0,2728.4,1092.0,996.1,1533.7,2900.1,0,36.7,-200
0.249000,1142.2,399.1,1502.0,715.7,2687.0,1686.3,997.6,1537.5,2906.6,0,36.1,-200
0.251000,1179.1,254.1,1746.9,942.3,3088.1,2652.3,998.7,1540.2,2911.3,0,35.4,-200
0.253000,1193.3,205.6,1829.0,969.1,3280.7,865.5,999.4,1541.9,2914.2,0,34.5,-200
0.255000,1211.2,215.0,1688.4,1282.6,3114.1,1145.9,999.7,1542.4,2915.1,0,33.4,-200
