time,f1,b1,f2,b2,f3,b3,f1p,f2p,f3p,f0,intensity,harmonicity
0.026000,878.3,85.2,1866.9,179.1,3365.9,1096.6,887,1876.3,3651.3,125.7,71.2,1.2
0.028000,883.6,89.4,1860.7,194.1,3399.5,1148.7,887.3,1874.2,3630,125.7,71.4,1.5
0.030000,889.0,96.8,1860.4,203.0,3411.1,1177.2,887.8,1870.8,3594.9,125.6,71.4,2
0.032000,892.2,108.6,1862.6,203.8,3413.3,1253.4,888.6,1866.1,3546.7,125.6,71.4,2.5
0.034000,892.5,120.3,1860.7,192.7,3410.9,1425.2,889.5,1860.3,3486.2,125.6,71.4,3
0.036000,892.1,124.1,1856.5,168.6,3374.6,1632.4,890.6,1853.5,3414.4,125.5,71.5,3.4
0.038000,893.0,119.1,1853.9,141.9,3322.9,1614.5,891.9,1845.9,3332.6,125.5,71.7,3.5
0.040000,896.1,110.4,1852.5,118.3,3306.6,1453.7,893.4,1837.5,3242.3,125.5,72,3.6
0.042000,900.6,100.9,1852.7,104.1,3311.7,1381.9,895.1,1828.6,3144.8,125.5,72.4,3.8
0.044000,903.4,93.4,1856.5,103.3,3308.7,1458.3,896.9,1819.2,3041.9,125.4,72.7,4.3
0.046000,903.1,89.0,1866.4,115.3,3267.8,1584.6,898.9,1809.4,2935.3,125.4,72.9,5.2
0.048000,901.4,87.2,1880.4,135.7,3239.4,1653.8,901.1,1799.3,2826.7,125.4,73.1,6.8
0.050000,900.4,86.8,1897.2,167.3,3309.5,1832.8,903.5,1788.8,2717.7,125.4,73.2,8.7
0.052000,901.4,87.6,1914.9,215.0,3716.4,2760.3,905.9,1777.8,2609.9,125.5,73.1,10.5
0.054000,903.4,89.6,1657.8,5157.6,1930.5,270.8,908.6,1766.3,2505.1,125.5,73.1,12.1
0.056000,904.3,92.9,1602.0,3808.2,1935.4,305.2,911.3,1754.1,2404.5,125.5,73,13.1
0.058000,905.2,96.3,1595.6,3866.6,1926.3,289.2,914.2,1741,2309.6,125.5,72.9,13.5
0.060000,909.1,99.6,1599.2,3865.4,1917.7,251.9,917.1,1726.8,2221.3,125.6,72.8,13.7
0.062000,916.3,101.7,1583.3,3342.1,1915.1,227.3,920.2,1711.3,2140.7,125.6,72.7,13.8
0.064000,923.7,102.0,1551.5,2857.2,1914.1,219.6,923.3,1694.2,2068.5,125.6,72.7,13.9
0.066000,930.8,101.0,1531.0,2662.8,1908.9,222.8,926.4,1675.3,2005.2,125.7,72.6,14.3
0.068000,937.5,97.9,1546.6,2835.7,1895.5,231.1,929.6,1654.4,1951.1,125.7,72.6,14.7
0.070000,942.4,92.6,1628.7,3297.9,1875.0,242.7,932.8,1631.5,1906.3,125.8,72.5,15.2
0.072000,943.7,87.5,1794.1,3663.5,1854.9,258.5,936,1606.4,1870.6,125.9,72.5,15.7
0.074000,943.4,84.9,1842.1,275.7,1903.1,3543.8,939.2,1579.1,1843.7,125.9,72.5,16.1
0.076000,943.8,84.4,1839.1,284.6,1840.6,3177.3,942.3,1549.8,1825.1,126,72.4,16.3
0.078000,945.4,84.5,1711.8,2974.6,1843.6,272.1,945.3,1518.6,1814.1,126.1,72.4,16.4
0.080000,947.2,84.6,1576.2,2988.5,1848.1,248.1,948.1,1486,1809.9,126.1,72.3,16.4
0.082000,949.0,86.0,1445.3,3101.1,1849.2,237.2,950.8,1452.2,1811.5,126.2,72.3,16.3
0.084000,951.1,89.4,1326.7,3201.8,1846.0,248.0,953.3,1417.9,1818.1,126.3,72.3,16.3
0.086000,953.9,94.0,1242.7,3266.0,1837.8,277.4,955.6,1383.6,1828.6,126.4,72.2,16.5
0.088000,956.7,97.8,1243.3,3197.5,1830.2,313.5,957.7,1350,1841.8,126.4,72.2,16.7
0.090000,959.4,101.1,1312.5,2845.8,1834.0,349.6,959.5,1317.9,1856.9,126.5,72.2,16.9
0.092000,961.6,104.8,1352.9,2352.0,1855.9,380.8,961,1288.1,1872.9,126.6,72.2,17.2
0.094000,962.2,110.4,1336.1,1949.4,1890.2,398.1,962.2,1261.4,1888.9,126.7,72.2,17.4
0.096000,960.5,117.2,1291.4,1699.1,1926.0,393.8,963,1238.6,1904.2,126.8,72.3,17.5
0.098000,958.1,120.9,1246.1,1614.8,1951.3,374.3,963.5,1220.4,1918.1,126.9,72.5,17.5
0.100000,956.8,120.2,1198.6,1594.5,1973.3,343.1,963.7,1207.6,1930.3,127,72.6,17.5
0.102000,958.0,117.5,1153.6,1542.9,1995.7,305.4,963.6,1200.6,1940.4,127.2,72.7,17.5
0.104000,961.0,113.8,1125.5,1491.9,2013.5,278.4,963.1,1200,1948.3,127.3,72.8,17.5
0.106000,964.2,108.9,1117.7,1499.5,2024.2,274.0,962.4,1206.1,1954.2,127.4,72.8,17.6
0.108000,965.7,104.9,1124.5,1541.7,2026.5,291.7,961.3,1219.1,1958.2,127.5,72.8,17.8
0.110000,965.3,104.5,1134.4,1531.6,2023.7,324.1,960.1,1238.8,1960.7,127.6,72.8,18
0.112000,963.0,108.7,1137.1,1426.5,2021.6,367.7,958.6,1265.2,1962.5,127.8,72.8,18.2
0.114000,959.5,116.0,1137.2,1293.9,2023.8,435.6,956.9,1297.8,1964,127.9,72.7,18.3
0.116000,954.8,124.3,1159.4,1195.0,2029.6,572.8,955.1,1336,1966.1,128,72.6,18.1
0.118000,950.1,127.0,1235.4,1192.1,2024.7,800.9,953.2,1379.1,1969.8,128.2,72.5,17.7
0.120000,949.2,118.8,1434.7,1443.6,1924.5,1019.6,951.3,1426.3,1975.7,128.3,72.3,17.1
0.122000,952.3,107.7,1634.0,2444.7,1824.7,704.3,949.4,1476.6,1985,128.4,72.1,16.5
0.124000,955.3,102.3,1779.7,3398.0,1851.7,502.6,947.7,1528.9,1998.5,128.6,71.8,16
0.126000,956.4,103.4,1874.5,400.6,1990.6,3579.1,946,1582,2016.9,128.7,71.6,15.6
0.128000,954.0,110.0,1889.3,357.9,1950.5,2946.8,944.5,1634.8,2041.1,128.9,71.3,15.2
0.130000,947.0,120.0,1897.5,348.9,1911.7,2340.3,943.3,1686.1,2071.7,129,71,14.9
0.132000,937.7,128.9,1894.1,362.2,1948.8,1980.0,942.3,1734.9,2109.1,129.1,70.7,14.6
0.134000,931.1,134.1,1876.6,378.6,2025.0,1846.8,941.6,1780.1,2153.5,129.3,70.5,14.4
0.136000,929.9,135.5,1849.3,379.9,2124.5,1945.2,941.2,1821,2205.1,129.4,70.4,14.3
0.138000,932.8,131.7,1823.9,373.3,2222.2,2263.0,941.1,1856.6,2263.8,129.5,70.4,14.3
0.140000,935.8,122.5,1802.5,381.1,2287.1,2757.2,941.4,1886.5,2329.3,129.6,70.5,14.3
0.142000,936.3,111.7,1786.0,425.4,2238.2,3062.5,942,1910.4,2400.9,129.8,70.8,14.4
0.144000,936.4,102.9,1774.8,491.1,2231.0,3038.4,942.9,1928,2478,129.9,71.3,14.5
0.146000,939.3,93.5,1774.3,500.2,2656.7,3082.2,944,1939.4,2559.6,130,71.7,14.7
0.148000,944.8,82.6,1784.5,423.5,3082.6,2306.9,945.4,1944.9,2644.6,130.1,72.2,15.1
0.150000,950.5,71.9,1796.5,340.6,3211.8,1775.1,947.1,1944.9,2731.7,130.2,72.6,15.5
0.152000,954.4,64.8,1809.2,301.0,3252.1,1596.0,948.8,1939.9,2819.6,130.3,73,15.8
0.154000,957.0,61.7,1824.9,305.7,3240.3,1671.6,950.7,1930.8,2906.8,130.4,73.1,16
0.156000,959.8,61.3,1849.5,347.2,3165.6,1975.0,952.7,1918.5,2991.7,130.5,73.2,15.8
0.158000,963.3,62.0,1882.8,402.0,3040.8,2400.4,954.6,1903.7,3072.9,130.6,73.1,15.4
0.160000,967.9,61.8,1911.8,432.7,2978.7,2689.9,956.5,1887.7,3148.7,130.7,72.9,14.9
0.162000,971.8,60.7,1914.6,416.4,3088.9,2544.5,958.2,1871.3,3217.7,130.7,72.6,14.1
0.164000,972.8,60.1,1903.7,372.7,3212.0,2208.5,959.8,1855.6,3278.7,130.8,72.2,13.2
0.166000,969.7,60.0,1895.3,323.5,3272.0,1901.3,961.2,1841.3,3330.3,130.9,71.6,12.1
0.168000,962.9,60.0,1894.0,286.0,3283.8,1660.2,962.3,1829.4,3371.6,131,71,10.6
0.170000,953.6,60.3,1897.5,260.5,3278.9,1428.8,963.1,1820.4,3401.8,131,70.3,8.9
0.172000,945.6,62.3,1903.6,243.8,3275.0,1230.9,963.6,1814.8,3420.1,131.1,69.5,7.1
0.174000,941.4,66.0,1909.6,227.8,3282.7,1096.6,963.8,1812.9,3426.2,131.2,68.6,5.6
