time,f1,b1,f2,b2,f3,b3,f1p,f2p,f3p,f0,intensity,harmonicity
0.025000,1057.6,202.6,1768.5,281.2,3399.7,105.3,1035.9,1720.5,3539.2,92.4,72.2,16.6
0.027000,1057.1,196.0,1772.9,266.8,3410.9,113.4,1034.9,1719.2,3536.4,92.4,72.1,17.3
0.029000,1053.1,195.5,1772.1,264.1,3428.0,119.8,1033.3,1717.1,3531.7,92.4,72.1,18.2
0.031000,1046.5,200.2,1766.5,275.4,3445.2,118.2,1031,1714.1,3525.1,92.4,72,19.2
0.033000,1039.0,206.8,1756.5,293.8,3453.5,111.8,1028,1710.3,3516.7,92.4,71.9,19.8
0.035000,1030.9,214.3,1741.7,307.3,3449.7,105.6,1024.5,1705.7,3506.7,92.4,71.8,19.6
0.037000,1021.8,221.5,1723.6,305.0,3433.6,99.2,1020.3,1700.3,3495,92.4,71.7,18.4
0.039000,1013.9,226.9,1708.2,289.8,3411.1,92.0,1015.5,1694.2,3481.7,92.5,71.6,16.4
0.041000,1010.1,231.5,1697.3,275.4,3389.7,85.9,1010.2,1687.3,3467,92.5,71.6,14
0.043000,1013.3,234.5,1690.2,273.5,3379.1,83.1,1004.3,1679.7,3451,92.5,71.6,11.9
0.045000,1019.2,235.1,1683.9,285.4,3387.0,83.3,997.9,1671.4,3433.7,92.5,71.7,10.4
0.047000,1017.0,235.2,1672.0,296.2,3406.9,84.5,991,1662.5,3415.5,92.6,71.8,9.7
0.049000,1003.6,233.5,1653.5,287.9,3422.1,86.3,983.7,1653,3396.3,92.6,71.8,9.5
0.051000,985.6,230.9,1632.9,265.0,3429.4,90.0,975.9,1643,3376.3,92.6,71.9,9.6
0.053000,968.1,235.4,1610.0,242.9,3431.3,96.9,967.8,1632.4,3355.7,92.7,71.9,9.8
0.055000,953.6,247.8,1585.1,226.0,3431.7,107.5,959.3,1621.4,3334.7,92.7,72,9.8
0.057000,945.5,255.2,1568.4,209.2,3433.6,119.7,950.5,1609.9,3313.5,92.7,72.2,9.8
0.059000,942.2,247.5,1565.8,193.2,3435.9,131.6,941.4,1598.1,3292.1,92.8,72.3,9.7
0.061000,935.6,228.7,1566.6,179.6,3436.1,149.7,932.1,1586,3270.9,92.8,72.4,9.6
0.063000,922.7,204.5,1562.6,168.2,3431.9,183.1,922.6,1573.7,3249.9,92.9,72.5,9.7
0.065000,906.3,178.6,1552.2,157.2,3420.7,236.0,913,1561.1,3229.3,92.9,72.5,9.8
0.067000,888.7,155.1,1536.6,145.9,3398.2,310.5,903.3,1548.4,3209.4,93,72.4,10
0.069000,871.5,139.9,1517.1,137.7,3361.7,399.9,893.5,1535.6,3190.2,93,72.2,10.2
0.071000,854.3,133.7,1493.1,132.9,3309.6,498.1,883.6,1522.8,3172,93.1,72.1,10.5
0.073000,838.8,134.7,1468.6,130.0,3252.8,603.3,873.8,1510,3154.8,93.2,72,10.9
0.075000,827.0,139.9,1450.6,130.0,3207.4,730.7,864.1,1497.3,3139,93.3,72,11.6
0.077000,819.5,146.2,1441.4,134.1,3190.9,862.5,854.4,1484.7,3124.5,93.3,71.9,12.7
0.079000,814.9,149.7,1437.7,139.5,3210.2,935.0,844.9,1472.3,3111.6,93.4,71.9,14.2
0.081000,811.3,149.4,1433.8,143.9,3235.1,963.5,835.6,1460.2,3100.3,93.5,71.9,15.7
0.083000,808.3,147.3,1427.3,148.1,3237.8,1015.5,826.5,1448.3,3090.9,93.6,71.8,16.9
0.085000,806.0,145.3,1417.6,154.6,3202.8,1121.2,817.7,1436.8,3083.3,93.7,71.8,17.4
0.087000,803.3,143.4,1405.4,166.1,3133.9,1235.7,809.1,1425.7,3077.7,93.8,71.8,16.9
0.089000,798.2,141.2,1393.4,179.7,3070.4,1293.0,800.8,1415.1,3074.1,94,71.7,15.9
0.091000,788.3,138.7,1383.9,189.8,3025.3,1309.7,792.9,1405,3072.6,94.1,71.7,14.5
0.093000,775.2,138.5,1380.1,193.9,2993.8,1351.2,785.4,1395.4,3073.3,94.3,71.7,13
0.095000,762.9,145.5,1380.7,199.2,2977.3,1494.0,778.2,1386.4,3076.2,94.4,71.7,11.8
0.097000,757.2,161.5,1381.9,216.4,2981.3,1814.3,771.5,1378,3081.3,94.6,71.7,10.9
0.099000,760.0,183.2,1383.3,250.1,2980.7,2466.4,765.2,1370.3,3088.7,94.8,71.7,10.1
0.101000,767.6,199.1,1386.1,285.6,2872.0,3495.9,759.3,1363.3,3098.2,95,71.7,9.4
0.103000,769.0,198.5,1382.2,288.5,2688.4,4081.5,754,1357,3110,95.2,71.8,8.5
0.105000,760.1,184.3,1366.9,254.6,2711.2,3587.3,749.1,1351.4,3123.9,95.4,71.8,7.5
0.107000,750.6,168.8,1354.3,216.4,2833.9,3082.7,744.7,1346.6,3139.9,95.6,71.8,5.9
0.109000,744.1,164.0,1347.5,199.0,2939.6,2955.9,740.8,1342.7,3157.9,95.8,71.8,3.9
0.111000,736.2,175.0,1339.4,206.4,2986.2,3094.8,737.4,1339.5,3177.9,96.1,71.7,1.9
0.113000,726.9,202.9,1324.7,235.7,2958.3,3272.9,734.6,1337.2,3199.7,96.3,71.6,0.3
0.115000,722.6,229.4,1308.5,256.5,2930.2,3128.3,732.2,1335.7,3223.2,96.6,71.4,-0.6
0.117000,727.0,233.4,1304.4,247.0,2963.2,2874.0,730.3,1335.1,3248.4,96.8,71.2,-0.5
0.119000,736.2,222.2,1309.7,226.9,3050.3,2771.0,728.9,1335.3,3275.1,97.1,71,0.3
0.121000,742.5,216.1,1314.9,214.9,3152.3,2826.3,728.1,1336.3,3303.2,97.4,70.8,1.5
0.123000,738.1,236.4,1316.7,226.6,3248.8,3185.8,727.6,1338.2,3332.4,97.6,70.7,2.7
0.125000,726.8,270.4,1323.2,255.7,3463.3,3898.8,727.7,1341,3362.7,97.9,70.7,3.5
0.127000,720.7,266.4,1338.7,262.1,3722.6,4297.4,728.2,1344.6,3394,98.2,70.8,4
0.129000,718.8,236.2,1355.0,249.9,3558.2,4536.8,729.1,1348.9,3425.9,98.5,71,4.2
0.131000,721.7,212.7,1370.4,249.4,3378.5,5012.2,730.5,1354.1,3458.4,98.7,71.2,4.5
0.133000,731.6,211.2,1383.4,280.3,3258.0,6692.5,732.3,1360,3491.3,99,71.3,4.7
0.135000,749.6,226.6,1390.9,335.9,4005.8,273.9,734.4,1366.7,3524.4,99.3,71.4,4.9
0.137000,767.9,239.0,1392.6,374.9,3973.8,269.5,736.9,1374.1,3557.6,99.5,71.3,5.3
0.139000,776.1,237.9,1391.3,370.3,3965.2,268.5,739.7,1382.2,3590.6,99.8,71.1,5.7
0.141000,773.4,233.5,1389.5,343.9,3969.0,289.8,742.8,1391,3623.3,100,70.9,6.2
0.143000,762.5,238.6,1392.1,316.8,3964.6,342.9,746.2,1400.4,3655.5,100.2,70.8,6.5
0.145000,755.5,247.2,1411.3,289.3,3925.2,374.6,749.8,1410.4,3687,100.4,70.8,6.8
0.147000,759.6,242.4,1441.4,250.6,3884.2,332.2,753.7,1420.9,3717.7,100.6,70.9,6.8
0.149000,762.9,225.8,1463.6,210.2,3875.1,289.4,757.8,1431.9,3747.5,100.9,71,6.8
0.151000,764.6,213.3,1480.3,186.7,3882.6,272.7,762,1443.4,3776.2,101,71.2,6.7
0.153000,776.2,215.6,1498.2,195.2,3891.4,281.3,766.4,1455.3,3803.6,101.2,71.3,6.5
0.155000,802.1,220.0,1521.3,234.3,3891.2,310.1,770.9,1467.6,3829.6,101.4,71.4,6.3
0.157000,825.3,209.7,1543.5,272.3,3885.0,335.4,775.5,1480.3,3854.1,101.6,71.4,5.9
0.159000,835.8,194.1,1555.8,292.5,3886.3,350.2,780.1,1493.2,3877,101.8,71.3,5.5
0.161000,833.9,187.8,1554.3,305.1,3901.3,379.1,784.8,1506.3,3898.3,101.9,71.2,5
0.163000,822.0,199.5,1543.6,324.6,3917.8,422.5,789.5,1519.6,3917.7,102.1,71.1,4.6
0.165000,805.6,212.5,1535.1,335.2,3919.8,430.6,794.2,1533.1,3935.3,102.2,71.2,4.5
0.167000,792.7,199.6,1536.7,310.5,3924.3,429.3,798.9,1546.6,3951,102.4,71.3,4.7
0.169000,785.2,170.8,1550.3,265.2,3942.7,449.8,803.5,1560.2,3964.7,102.5,71.6,5.2
0.171000,784.9,145.1,1578.6,222.5,3971.0,468.5,808.1,1573.8,3976.5,102.7,71.9,5.8
0.173000,791.5,130.5,1612.7,192.4,3980.9,443.5,812.5,1587.3,3986.2,102.9,72.2,6.3
0.175000,800.3,123.8,1636.7,170.7,3955.5,392.6,816.9,1600.8,3994,103,72.5,6.8
0.177000,805.8,120.1,1644.1,150.7,3924.8,360.4,821.1,1614.1,3999.8,103.2,72.7,7
0.179000,805.7,118.3,1640.7,133.3,3907.9,367.0,825.2,1627.2,4003.7,103.4,72.8,7.1
0.181000,802.6,119.9,1636.4,123.0,3904.6,410.7,829.1,1640.1,4005.6,103.6,72.9,7.2
0.183000,801.4,124.7,1638.5,125.5,3917.3,480.6,832.9,1652.7,4005.7,103.8,72.9,7.5
0.185000,805.8,128.5,1650.6,140.1,3940.0,535.5,836.5,1665,4004,104,72.9,8.1
0.187000,813.9,128.5,1670.2,152.7,3935.6,531.8,839.9,1677,4000.6,104.2,72.9,9.3
0.189000,822.7,128.6,1690.4,151.9,3894.7,487.4,843.2,1688.7,3995.6,104.4,72.9,11
0.191000,831.3,131.9,1706.8,144.3,3853.5,437.2,846.2,1699.9,3989.1,104.6,72.9,12.8
0.193000,838.3,135.2,1719.4,142.7,3835.4,416.6,849.1,1710.7,3981.1,104.9,72.9,14.2
0.195000,841.6,133.6,1728.1,154.7,3843.1,453.7,851.8,1721.1,3971.9,105.1,72.8,14.8
0.197000,840.9,127.0,1730.0,179.4,3875.3,579.0,854.3,1731,3961.5,105.4,72.8,14.2
0.199000,839.0,119.8,1725.0,204.0,3928.0,789.4,856.6,1740.5,3950.1,105.7,72.8,12.8
0.201000,839.1,116.8,1721.9,210.4,3942.3,946.1,858.7,1749.4,3937.7,106,72.7,11
0.203000,842.1,120.4,1727.4,205.4,3889.0,907.2,860.7,1757.8,3924.7,106.3,72.7,9.3
0.205000,846.2,128.1,1738.0,205.4,3864.5,810.1,862.5,1765.7,3911,106.6,72.7,8.1
0.207000,850.1,134.6,1750.3,215.6,3877.9,776.8,864.1,1773.1,3896.9,106.9,72.8,7.7
0.209000,853.9,136.0,1759.7,225.5,3895.9,801.6,865.6,1780,3882.5,107.2,72.8,7.7
0.211000,857.7,134.3,1761.7,219.5,3888.9,843.3,866.9,1786.3,3867.9,107.5,72.8,7.8
0.213000,860.6,133.4,1758.8,197.7,3858.9,844.0,868.1,1792.1,3853.4,107.9,72.8,7.8
0.215000,862.0,135.5,1758.1,176.1,3849.2,787.3,869.1,1797.4,3839,108.2,72.8,7.4
0.217000,862.9,141.2,1762.0,170.0,3874.4,705.6,870.1,1802.2,3824.9,108.6,72.8,6.5
0.219000,867.3,151.0,1769.1,188.8,3902.8,609.4,870.9,1806.5,3811.2,108.9,72.8,5.2
0.221000,879.3,159.4,1776.0,237.1,3912.7,524.5,871.7,1810.3,3798.1,109.3,72.8,3.7
0.223000,895.2,157.5,1781.1,288.0,3908.5,468.3,872.4,1813.6,3785.7,109.7,72.7,2.4
0.225000,910.4,146.6,1790.8,300.1,3893.9,440.9,873,1816.5,3774.1,110,72.6,1.3
0.227000,921.1,138.2,1806.8,281.7,3869.3,432.6,873.6,1819,3763.4,110.4,72.5,0.3
0.229000,923.9,142.8,1823.9,271.5,3833.4,454.9,874.1,1821.2,3753.8,110.8,72.3,-0.8
0.231000,913.4,161.0,1833.5,295.2,3784.8,539.3,874.7,1822.9,3745.3,111.2,72.2,-1.7
0.233000,892.4,174.5,1827.6,337.0,3749.2,676.0,875.2,1824.3,3738,111.6,72.2,-1.9
0.235000,872.8,173.5,1810.9,371.3,3755.8,875.8,875.7,1825.5,3731.9,112,72.2,-1.2
0.237000,858.9,168.9,1790.2,419.9,3806.4,1341.6,876.2,1826.4,3727.3,112.5,72.3,1.1
0.239000,852.9,168.0,1762.7,506.1,3370.5,2089.5,876.8,1827,3724,112.9,72.4,4.8
0.241000,853.7,166.3,1727.4,584.5,3071.2,1799.8,877.4,1827.5,3722.1,113.4,72.5,8.8
0.243000,856.6,161.9,1709.6,594.2,3019.0,1698.5,878,1827.8,3721.6,114,72.5,12.5
0.245000,859.0,163.1,1721.0,576.7,3096.4,1974.3,878.7,1828,3722.7,114.5,72.5,15
0.247000,863.3,174.4,1754.8,579.6,3479.4,3042.2,879.5,1828.1,3725.1,115.2,72.5,16
0.249000,871.7,184.4,1797.7,598.3,3895.4,1090.4,880.3,1828.2,3729,115.8,72.4,16.1
0.251000,879.6,183.6,1830.9,616.9,3860.6,1008.8,881.2,1828.3,3734.3,116.6,72.3,15.6
0.253000,882.8,180.6,1846.7,629.2,3880.2,1049.7,882.2,1828.5,3741,117.5,72.2,15
0.255000,883.4,185.1,1849.1,620.3,3953.7,1160.8,883.3,1828.8,3749,118.4,72.2,14.7
0.257000,885.3,191.4,1845.2,550.9,4051.9,1296.4,884.5,1829.2,3758.2,119.5,72.1,14.6
0.259000,889.0,188.3,1843.6,443.5,4109.8,1414.2,885.8,1829.7,3768.7,120.7,72,14.4
0.261000,891.8,179.6,1849.1,350.5,4106.0,1372.7,887.2,1830.5,3780.2,122.1,71.9,14.3
0.263000,894.5,176.2,1863.9,279.2,4081.2,1140.7,888.6,1831.6,3792.7,123.7,71.9,14.2
0.265000,902.4,176.4,1884.6,221.6,4044.0,869.2,890.2,1832.9,3806.1,125.4,71.8,14.2
0.267000,916.0,168.1,1903.8,179.5,4007.0,654.6,891.9,1834.5,3820.3,127.3,71.7,14.4
0.269000,925.3,154.6,1917.7,160.7,3987.8,539.1,893.6,1836.5,3835.2,129.4,71.7,14.7
0.271000,927.0,145.1,1930.0,163.0,3986.3,500.1,895.5,1838.9,3850.6,131.8,71.6,15.1
0.273000,924.5,140.1,1944.4,185.5,3990.6,518.5,897.4,1841.7,3866.5,134.4,71.6,15.6
0.275000,922.5,136.0,1959.0,221.5,3982.9,570.3,899.4,1844.9,3882.6,137.2,71.5,16.2
0.277000,921.3,133.0,1962.7,247.3,3959.8,608.1,901.5,1848.6,3898.9,140.3,71.5,17
0.279000,917.9,133.7,1955.0,259.0,3950.3,629.4,903.7,1852.8,3915.3,143.6,71.4,18.1
0.281000,912.1,138.6,1942.7,263.9,3981.3,668.9,906,1857.6,3931.5,147.2,71.2,19.1
0.283000,908.3,143.0,1929.8,252.9,4048.9,714.2,908.3,1862.8,3947.5,150.9,71.1,19.8
0.285000,909.2,140.8,1919.4,223.8,4106.6,702.9,910.6,1868.6,3963.1,154.9,70.9,19.9
0.287000,911.0,135.1,1913.7,200.3,4103.9,632.9,913,1874.9,3978.1,159.1,70.7,18.9
0.289000,910.9,130.6,1910.8,188.5,4063.5,550.0,915.4,1881.8,3992.6,163.4,70.4,17.3
0.291000,911.0,126.9,1906.9,179.7,4012.9,482.6,917.9,1889.3,4006.2,167.9,70.1,15.4
0.293000,913.4,121.9,1900.8,168.3,3959.6,446.5,920.3,1897.3,4019,172.5,69.8,13.4
0.295000,916.6,118.4,1899.3,165.3,3911.7,457.5,922.8,1905.9,4030.8,177.1,69.4,11.9
0.297000,918.2,122.7,1911.7,186.1,3893.8,518.9,925.3,1915.1,4041.5,0,69,10.7
0.299000,920.1,132.4,1941.4,228.2,3910.6,603.4,927.8,1924.8,4051,186.5,68.6,9.4
0.301000,925.4,140.5,1976.7,267.5,3942.0,659.1,930.2,1935.1,4059.2,191.2,68.1,8.4
0.303000,933.4,145.6,1996.6,289.8,3957.0,661.9,932.6,1945.9,4066.1,195.8,67.7,7.9
0.305000,941.7,149.3,2001.2,310.6,3942.4,624.7,935,1957.3,4071.5,200.3,67.2,8.3
0.307000,947.9,151.2,2003.2,338.5,3908.1,562.9,937.4,1969.1,4075.5,204.7,66.7,9.9
0.309000,951.8,149.5,2008.8,361.0,3872.5,493.5,939.7,1981.4,4077.9,209,66.2,12.7
0.311000,952.9,144.3,2017.1,352.2,3853.3,445.3,941.9,1994.1,4078.9,213,65.6,15.9
0.313000,951.0,143.3,2024.3,306.9,3860.6,436.3,944.1,2007.3,4078.2,216.8,65,18.6
0.315000,947.6,157.7,2028.4,254.8,3895.4,458.4,946.3,2020.8,4076,220.4,64.3,20.2
0.317000,944.2,201.5,2034.0,228.9,3948.3,471.2,948.3,2034.7,4072.2,223.8,63.6,23.7
0.319000,940.8,289.7,2046.0,245.6,4001.6,457.8,950.3,2048.9,4066.8,226.9,62.8,29.7
0.321000,931.0,432.6,2061.5,301.2,4049.4,450.6,952.2,2063.4,4060,229.8,61.9,33.4
0.323000,907.4,594.7,2069.6,368.7,4073.2,460.6,954,2078.2,4051.6,232.4,60.9,30.3
0.325000,890.4,706.1,2070.6,398.4,4055.5,469.8,955.7,2093.1,4041.8,234.7,59.8,15.6
0.327000,902.6,754.9,2079.9,373.3,4012.0,429.0,957.3,2108.2,4030.7,236.8,58.7,-17.5
0.329000,922.3,794.8,2089.6,320.2,3979.1,344.8,958.9,2123.4,4018.3,238.7,57.5,-65.8
0.331000,950.7,836.9,2084.2,260.8,3963.3,284.9,960.3,2138.7,4004.6,240.4,56.2,-119.2
0.333000,990.5,865.3,2065.4,216.3,3967.7,279.6,961.7,2153.9,3989.9,241.9,54.9,-167.3
0.335000,1010.8,887.4,2039.8,192.0,4001.0,332.3,963,2169.2,3974.2,243.1,53.7,-200
0.337000,983.3,895.8,2013.5,178.9,4060.4,418.8,964.2,2184.3,3957.5,244.2,52.3,-213.8
0.339000,923.3,809.0,1990.5,164.6,4122.1,495.6,965.2,2199.3,3940.1,245.1,51.1,-215.5
0.341000,909.0,632.6,1977.4,146.3,4126.8,535.2,966.3,2214.2,3922.1,245.9,49.9,-210.3
0.343000,933.2,481.7,1975.7,127.8,3813.3,6198.8,967.2,2228.8,3903.5,246.6,48.7,-203.4
0.345000,954.5,373.7,1979.4,115.0,3968.9,4557.7,968,2243.1,3884.6,247.1,47.6,-200
0.347000,959.2,308.4,1980.5,110.6,4041.7,553.2,968.8,2257.1,3865.4,0,46.5,-200
0.349000,955.1,268.3,1976.2,112.6,4014.3,652.1,969.5,2270.7,3846.1,0,45.7,-200
0.351000,951.3,243.4,1970.8,123.8,3888.0,549.0,970.1,2283.8,3826.8,0,45,-200
0.353000,952.2,224.6,1971.8,159.7,3806.0,391.8,970.6,2296.5,3807.7,0,44.9,-200
0.355000,973.2,245.1,2016.8,286.2,3736.6,334.6,971.1,2308.7,3789,0,45.4,-200
0.357000,1012.7,299.9,2174.2,577.8,3699.7,391.8,971.6,2320.3,3770.7,0,46.4,-200
0.359000,1032.5,333.6,2434.4,833.5,3690.2,525.4,972,2331.3,3752.9,0,47.6,-200
0.361000,1023.1,348.6,2647.3,860.9,3694.4,673.0,972.3,2341.7,3736,0,48.6,-200
0.363000,1009.3,338.6,2767.3,811.8,3689.4,813.7,972.6,2351.4,3719.8,0,49.4,-200
0.365000,1005.3,312.1,2845.2,781.4,3656.2,975.0,972.8,2360.3,3704.6,0,49.8,-200
0.367000,1010.6,286.7,2905.8,777.1,3590.6,1148.9,973,2368.5,3690.5,0,49.9,-200
0.369000,1019.6,267.3,2950.5,796.1,3506.1,1281.8,973.2,2375.9,3677.6,0,49.6,-200
0.371000,1022.0,249.6,2941.6,868.4,3464.9,1252.8,973.3,2382.6,3666,0,49,-200
0.373000,1003.5,221.7,2816.2,935.9,3548.9,1046.5,973.5,2388.4,3655.8,0,48.1,-200
0.375000,967.8,177.9,2616.9,864.2,3686.3,790.0,973.6,2393.3,3647,0,47.1,-200
0.377000,942.0,142.8,2415.2,717.6,3771.6,587.8,973.6,2397.4,3639.7,0,46.1,-200
0.379000,934.1,133.0,2232.5,558.3,3802.8,488.0,973.7,2400.5,3633.9,0,45.3,-200
0.381000,940.5,149.0,2099.0,429.2,3793.5,478.1,973.7,2402.8,3629.8,0,44.6,-200
0.383000,952.5,184.1,2031.9,362.4,3758.0,524.4,973.8,2404.2,3627.3,0,43.9,-200
0.385000,954.8,220.9,2018.5,349.5,3711.3,575.2,973.8,2404.6,3626.5,0,43.2,-200
