time,f1,b1,f2,b2,f3,b3,f1p,f2p,f3p,f0,intensity,harmonicity
0.026000,794.8,122.5,2033.1,219.2,3257.5,169.4,797.2,2020,3232.1,234.5,70.2,12.5
0.028000,801.0,119.1,2025.7,221.9,3263.9,177.5,800.5,2017.7,3240.5,234.6,70.1,12.2
0.030000,808.5,119.2,2014.9,221.4,3271.8,190.6,805.7,2014.1,3253.9,234.7,70,11.8
0.032000,817.1,121.7,2005.7,210.6,3281.5,208.6,812.5,2009.3,3271.6,234.7,69.9,11.2
0.034000,825.7,125.2,1999.8,194.8,3293.1,231.5,820.3,2003.5,3292.4,234.8,69.8,10.8
0.036000,833.2,129.5,1995.1,186.8,3306.9,256.5,828.6,1997.1,3315.3,234.9,69.6,10.7
0.038000,838.2,134.5,1988.2,195.1,3321.3,273.6,836.9,1990.4,3338.9,235.1,69.5,10.7
0.040000,841.5,139.6,1975.6,216.2,3333.2,281.3,844.4,1983.7,3361.9,235.2,69.4,10.7
0.042000,844.1,144.9,1959.7,237.1,3343.3,287.4,850.9,1977.3,3383.3,235.3,69.3,10.9
0.044000,847.0,153.4,1951.8,250.0,3360.8,297.0,856,1971.6,3402,235.5,69.2,11.3
0.046000,851.3,168.5,1959.0,260.8,3391.7,300.1,859.4,1966.7,3417.3,235.7,69.1,11.9
0.048000,856.6,187.0,1973.7,270.9,3421.6,288.1,861.2,1962.9,3428.7,235.9,69.1,12.9
0.050000,860.6,202.0,1983.3,274.9,3440.4,281.3,861.5,1960.3,3435.9,236.1,69,14.1
0.052000,861.2,207.7,1981.1,270.7,3451.7,294.6,860.5,1958.9,3439.3,236.3,68.9,15.2
0.054000,858.9,204.3,1971.1,258.0,3461.3,320.9,858.5,1958.6,3439,236.5,68.8,16.2
0.056000,856.2,194.0,1960.2,238.3,3466.6,346.3,856.1,1959.3,3435.7,236.8,68.6,16.7
0.058000,854.9,181.2,1953.4,218.4,3460.4,362.9,853.6,1960.9,3430.2,237.1,68.4,17.2
0.060000,855.2,169.1,1952.0,202.9,3446.1,371.7,851.4,1963,3423.4,237.3,68.2,17.5
0.062000,856.4,158.8,1955.8,194.8,3434.1,379.7,849.9,1965.5,3416,237.6,67.9,17.5
0.064000,858.1,149.3,1963.5,194.5,3428.9,397.7,849.3,1968,3409,238,67.4,17
0.066000,859.9,139.7,1972.8,201.1,3423.9,430.7,849.7,1970.3,3403.1,238.3,67,15.7
0.068000,861.0,131.4,1978.7,212.1,3407.8,471.1,851.2,1972.1,3398.8,238.6,66.4,13.3
0.070000,860.9,127.4,1976.9,225.2,3381.4,509.9,853.4,1973.2,3396.5,239,65.9,10.2
0.072000,859.0,130.9,1968.0,237.3,3363.8,539.1,856.1,1973.5,3396.5,239.4,65.5,7.3
0.074000,854.6,140.8,1961.6,244.8,3369.7,528.7,858.9,1972.8,3398.8,239.7,65.3,5.2
0.076000,849.3,151.2,1964.4,246.9,3382.6,462.2,861.3,1971.2,3403.1,240.1,65.2,4.5
0.078000,845.9,156.3,1971.0,245.6,3383.2,411.3,862.9,1968.8,3409.2,240.6,65.1,5.2
0.080000,844.9,157.9,1974.4,245.1,3379.5,400.8,863.3,1965.8,3416.6,241,65.2,6.6
0.082000,845.5,161.5,1972.9,252.9,3384.1,412.4,862,1962.4,3425,241.4,65.2,8.3
0.084000,846.4,169.3,1966.3,276.4,3405.5,427.2,858.7,1958.9,3433.7,241.9,65.1,9.9
0.086000,846.5,180.3,1955.1,324.4,3439.0,439.3,853.5,1955.7,3442.4,242.3,65,10.9
0.088000,846.1,193.0,1943.6,399.6,3468.3,453.5,846.3,1953.1,3450.7,242.8,64.8,11.8
0.090000,845.9,208.9,1939.1,492.7,3487.6,468.4,837.2,1951.4,3458.2,243.3,64.5,12.6
0.092000,845.5,227.0,1949.5,553.0,3503.4,466.7,826.6,1951,3464.9,243.8,64.2,13.3
0.094000,841.4,243.3,1965.2,533.9,3525.4,457.4,814.9,1952.2,3470.7,244.3,63.8,13.7
0.096000,829.6,255.5,1967.5,461.0,3558.8,485.9,802.5,1955,3475.5,244.8,63.5,13.8
0.098000,812.2,267.2,1959.8,386.2,3610.6,599.4,790,1959.7,3479.5,245.4,63.1,13.6
0.100000,792.5,287.3,1953.9,330.8,3564.1,995.7,777.9,1966.2,3482.8,245.9,62.8,13.1
0.102000,773.0,320.9,1959.9,300.9,3436.1,1170.9,766.6,1974.4,3485.6,246.5,62.6,12.5
0.104000,753.1,365.0,1981.7,280.0,3343.8,1325.5,756.5,1984.1,3488.1,247,62.4,11.8
0.106000,728.7,411.0,2009.6,239.8,3320.3,1465.6,747.8,1995,3490.3,247.6,62.2,11.1
0.108000,704.4,450.9,2025.7,191.0,3394.6,1548.3,740.7,2006.6,3492.5,248.2,62,10.4
0.110000,689.2,483.7,2030.1,160.0,3526.8,1538.5,735.1,2018.5,3494.7,248.7,61.7,9.6
0.112000,690.7,499.3,2027.6,160.2,3585.6,1450.5,731,2030.2,3496.9,249.3,61.4,8.8
0.114000,706.9,493.2,2019.8,204.7,3473.8,1353.1,728.2,2041.2,3498.9,249.9,61,8
0.116000,730.8,494.9,2012.8,308.8,3381.2,1159.4,726.4,2051,3500.8,250.4,60.6,8
0.118000,752.2,502.4,2034.3,385.5,3457.8,950.0,725.4,2059.2,3502.5,251,60.1,12.6
0.120000,757.6,492.1,2074.0,310.0,3574.9,607.1,724.8,2065.3,3503.8,251.5,59.6,17.8
0.122000,748.9,521.1,2092.5,193.7,3581.6,353.2,724.6,2069.1,3504.6,252,59.1,19.1
0.124000,729.6,639.8,2095.6,124.2,3584.8,259.8,724.6,2070.3,3504.8,252.5,58.4,11.7
