time,f1,b1,f2,b2,f3,b3,f1p,f2p,f3p,f0,intensity,harmonicity
0.025000,733.3,128.0,2284.7,273.2,3600.8,323.6,724.3,2239.4,3563.5,197.3,73.6,17.3
0.027000,743.4,119.4,2257.6,254.1,3557.2,291.2,726.3,2237.8,3562.6,197.3,73.6,17.4
0.029000,752.0,112.5,2235.1,238.0,3532.7,239.1,729.6,2235.1,3561.2,197.3,73.6,17.1
0.031000,759.3,107.3,2220.8,233.0,3520.5,209.7,734.1,2231.4,3559.3,197.3,73.7,16.8
0.033000,764.0,103.3,2213.7,248.4,3511.3,210.3,739.7,2226.7,3556.8,197.3,73.7,16.5
0.035000,766.5,99.1,2209.2,285.9,3501.5,238.2,746.3,2221.1,3554,197.3,73.8,16.4
0.037000,768.8,94.8,2201.6,326.7,3496.1,284.3,753.8,2214.6,3550.7,197.3,73.8,16.6
0.039000,772.1,91.9,2191.0,345.4,3507.1,340.1,761.9,2207.3,3547.1,197.3,73.8,17.1
0.041000,776.6,91.4,2184.4,334.8,3540.5,384.7,770.6,2199.3,3543.3,197.4,73.9,17.5
0.043000,781.7,92.3,2183.0,323.9,3576.0,394.6,779.5,2190.6,3539.4,197.4,73.9,17.9
0.045000,786.5,93.8,2184.1,343.4,3594.5,377.8,788.6,2181.4,3535.3,197.5,73.8,18
0.047000,790.9,95.8,2186.0,400.8,3597.4,350.0,797.7,2171.7,3531.2,197.6,73.8,17.8
0.049000,795.2,98.7,2187.1,491.6,3589.1,320.0,806.5,2161.6,3527.2,197.7,73.7,17.3
0.051000,798.5,103.0,2182.9,583.4,3571.7,303.1,814.9,2151.3,3523.3,197.8,73.5,16.7
0.053000,801.1,107.7,2169.8,609.5,3550.2,302.8,822.6,2140.7,3519.6,198,73.3,16.1
0.055000,804.1,112.1,2149.7,568.0,3529.9,315.4,829.7,2130.1,3516.2,198.1,73.2,15.7
0.057000,807.2,116.1,2126.2,522.3,3516.5,338.6,835.8,2119.5,3513.1,198.3,73,15.5
0.059000,810.0,118.6,2099.2,499.1,3510.1,366.4,841,2109,3510.4,198.5,72.7,15.4
0.061000,812.5,119.2,2071.4,496.3,3504.9,382.3,845.2,2098.6,3508.1,198.8,72.5,15.4
0.063000,815.4,119.5,2051.2,501.0,3494.9,371.3,848.2,2088.5,3506.3,199,72.4,15.4
0.065000,819.3,122.5,2047.1,500.0,3482.9,338.2,850.1,2078.7,3504.9,199.3,72.2,15.3
0.067000,824.5,129.9,2052.5,484.2,3476.0,302.3,850.9,2069.3,3504,199.6,71.9,15.2
0.069000,828.7,138.9,2047.6,458.1,3479.1,282.5,850.6,2060.2,3503.6,199.9,71.8,15
0.071000,829.1,144.7,2028.4,425.1,3491.0,279.1,849.2,2051.7,3503.7,200.3,71.6,14.7
0.073000,826.6,144.7,2009.6,386.8,3504.7,279.6,847,2043.5,3504.2,200.6,71.4,14.4
0.075000,824.9,143.3,2001.5,351.7,3514.4,270.4,843.8,2035.9,3505.1,201,71.2,14
0.077000,826.7,145.9,2002.8,324.5,3519.1,252.9,840,2028.8,3506.4,201.5,71.1,13.4
0.079000,832.7,153.1,2008.4,294.3,3521.5,235.0,835.7,2022.2,3508,201.9,71,12.7
0.081000,841.6,160.5,2015.6,259.1,3522.9,218.3,831,2016.1,3509.8,202.3,71,11.9
0.083000,850.0,162.9,2022.5,231.0,3523.0,204.0,826,2010.4,3511.9,202.8,71,11.3
0.085000,854.4,158.2,2027.4,221.7,3520.0,198.6,821,2005.3,3514.2,203.3,70.9,11
0.087000,853.0,150.8,2028.4,240.9,3515.4,204.7,816.2,2000.5,3516.5,203.8,70.9,11.1
0.089000,847.4,146.2,2024.1,292.9,3514.8,210.7,811.6,1996.1,3518.9,204.3,70.8,11.7
0.091000,841.6,147.3,2016.8,364.7,3520.7,201.4,807.6,1992.1,3521.3,204.9,70.7,12.3
0.093000,838.8,154.7,2015.1,424.9,3528.8,184.7,804.1,1988.4,3523.6,205.4,70.6,12.8
0.095000,838.4,164.1,2020.1,444.1,3537.9,179.1,801.3,1984.9,3525.7,206,70.5,12.9
0.097000,838.2,169.5,2024.1,412.4,3545.7,187.9,799.4,1981.6,3527.8,206.5,70.4,12.2
0.099000,837.2,172.4,2023.9,355.8,3547.8,203.1,798.3,1978.5,3529.6,207.1,70.3,11.1
0.101000,834.4,176.7,2018.3,301.2,3541.2,215.2,798.2,1975.5,3531.2,207.7,70.2,9.8
0.103000,830.1,181.8,2006.7,258.6,3529.3,217.0,799,1972.5,3532.6,208.3,70.2,8.7
0.105000,825.2,183.2,1987.5,230.1,3517.8,213.2,800.7,1969.5,3533.8,208.9,70.1,8.2
0.107000,820.5,179.5,1964.3,216.6,3507.8,214.3,803.3,1966.6,3534.7,209.6,70.1,8.5
0.109000,816.9,176.4,1944.5,209.7,3495.1,222.1,806.6,1963.6,3535.5,210.2,70.1,9.4
0.111000,814.7,178.2,1933.0,205.8,3483.0,236.1,810.6,1960.4,3536.1,210.8,70,10.5
0.113000,812.7,184.7,1927.6,207.0,3479.9,253.7,815.1,1957.2,3536.5,211.5,69.9,11.5
0.115000,810.9,194.0,1925.0,211.7,3484.5,262.1,820,1953.8,3536.9,212.2,69.7,12.2
0.117000,808.9,201.8,1923.0,213.6,3487.0,253.3,824.9,1950.3,3537.3,212.9,69.5,12.4
0.119000,804.8,204.0,1918.9,210.6,3484.8,241.4,829.7,1946.7,3537.7,213.6,69.2,12.4
0.121000,797.2,198.4,1911.7,206.0,3483.4,249.6,834.2,1942.9,3538.3,214.4,69,12.3
0.123000,790.3,188.7,1905.3,200.7,3490.8,287.5,838.2,1938.9,3539,215.1,68.8,12.1
0.125000,789.1,180.8,1902.9,194.5,3514.1,344.3,841.3,1934.9,3539.9,215.9,68.7,12
0.127000,792.2,178.7,1902.1,192.9,3551.6,392.8,843.4,1930.7,3541.2,216.7,68.5,12
0.129000,794.5,183.0,1899.5,202.2,3594.0,420.3,844.2,1926.4,3542.9,217.5,68.4,12
0.131000,791.3,194.6,1892.4,230.2,3625.6,431.0,843.5,1922.1,3545,218.3,68.3,12
0.133000,780.6,215.2,1882.3,274.9,3637.8,442.4,841.1,1917.8,3547.6,219.2,68.1,11.9
0.135000,767.8,248.6,1883.9,296.7,3640.3,459.4,836.8,1913.5,3550.7,220.1,67.9,11.8
0.137000,764.3,292.4,1904.7,262.3,3645.0,464.3,830.6,1909.3,3554.4,220.9,67.8,11.7
0.139000,773.2,337.5,1925.7,216.6,3648.9,443.8,822.2,1905.2,3558.8,221.8,67.6,11.6
0.141000,786.9,369.9,1939.9,191.8,3645.8,397.9,811.7,1901.2,3563.7,222.7,67.5,11.4
0.143000,798.4,390.7,1948.4,187.2,3641.6,354.0,799.1,1897.4,3569.2,223.6,67.2,10.9
0.145000,803.5,418.5,1949.3,202.8,3658.2,334.3,784.3,1893.8,3575.3,224.4,66.9,10
0.147000,806.4,461.2,1940.3,227.4,3689.8,337.4,767.4,1890.4,3582,225.3,66.5,8.4
0.149000,803.3,502.0,1926.0,245.0,3700.3,353.5,748.6,1887.4,3589.1,226.1,65.9,6.2
0.151000,769.4,496.4,1906.7,264.5,3650.0,383.2,728.1,1884.7,3596.7,226.9,65.1,3.8
0.153000,757.8,446.7,1886.3,253.4,3543.1,371.5,706,1882.4,3604.6,227.7,64.2,1.7
0.155000,804.6,479.0,1890.3,222.5,3471.9,285.9,682.7,1880.5,3612.7,228.5,63.2,0.4
0.157000,865.4,593.5,1898.0,215.2,3460.7,222.2,658.4,1878.9,3621,229.2,62.3,-0.3
0.159000,859.3,777.0,1897.9,220.8,3468.4,184.5,633.4,1877.8,3629.3,229.8,61.9,-0.5
0.161000,744.3,1032.7,1894.6,222.8,3478.5,160.8,608.2,1877.1,3637.4,230.4,62,-0.3
0.163000,548.6,1116.3,1892.6,213.8,3490.0,150.9,583.1,1876.9,3645.3,230.9,62.5,0.5
0.165000,460.1,799.1,1885.8,214.3,3518.1,161.1,558.5,1877.1,3652.8,231.4,63,1.7
0.167000,445.9,591.5,1864.5,262.1,3583.4,191.8,534.8,1877.7,3659.7,231.9,63.5,3.9
0.169000,440.5,535.8,1840.4,310.4,3657.9,215.2,512.5,1878.8,3666,232.2,63.9,7
0.171000,433.0,515.0,1843.2,280.3,3691.7,228.1,491.9,1880.2,3671.5,232.5,64.2,10.4
0.173000,421.2,502.9,1857.6,227.3,3693.4,237.4,473.5,1882,3676,232.7,64.3,13.5
0.175000,409.9,495.8,1868.2,193.1,3685.8,243.4,457.5,1884.2,3679.5,232.9,64.3,15.6
0.177000,404.8,484.2,1874.2,180.2,3689.7,258.5,444.4,1886.8,3681.8,233,64.2,16.5
0.179000,405.9,466.0,1876.1,183.4,3715.6,299.7,434.4,1889.6,3682.8,233.1,64,16.7
0.181000,408.4,461.3,1875.6,197.7,3756.0,368.9,427.7,1892.7,3682.5,233.1,63.7,16.5
0.183000,409.4,493.9,1874.8,222.2,3790.1,444.4,424.7,1896,3680.8,233.1,63.3,16.1
0.185000,410.1,560.8,1876.7,251.4,3795.6,501.7,425.4,1899.5,3677.6,233,62.8,15.8
0.187000,415.3,626.1,1883.2,270.2,3770.8,517.8,429.9,1903.2,3673,232.9,62.2,19
0.189000,427.8,661.8,1891.9,272.9,3732.4,500.1,438.3,1907,3667,232.7,61.5,25.4
0.191000,443.7,664.9,1898.9,266.0,3691.3,463.5,450.4,1910.8,3659.6,232.5,60.7,30
0.193000,459.4,654.0,1904.6,262.2,3655.3,413.1,466.3,1914.7,3650.8,232.3,59.9,27.9
0.195000,478.3,646.3,1912.7,274.7,3633.3,361.9,485.7,1918.7,3640.7,232.1,59.1,13.9
0.197000,502.2,655.4,1925.4,303.4,3625.4,336.7,508.4,1922.6,3629.5,231.9,58.2,-18.7
0.199000,526.6,695.6,1937.4,323.1,3616.5,348.4,534,1926.4,3617.3,231.7,57.3,-66.6
0.201000,538.4,798.6,1940.4,316.0,3590.8,379.1,562.4,1930.2,3604.1,231.5,56.3,-119.7
0.203000,519.4,1049.5,1941.4,311.5,3553.5,377.9,593,1933.9,3590.2,231.2,55.4,-167.5
0.205000,272.4,2037.9,1951.1,338.4,3527.0,341.7,625.4,1937.4,3575.7,231,54.4,-200
0.207000,1044.4,2201.5,1970.7,376.2,3517.6,322.4,659.2,1940.8,3560.8,230.8,53.3,-213.7
0.209000,777.4,1231.8,1986.7,370.6,3520.0,333.4,693.8,1944,3545.7,230.7,52.2,-215.4
0.211000,820.3,645.4,1990.8,322.6,3528.5,338.4,728.7,1947,3530.7,230.5,51.2,-210.3
0.213000,841.8,393.2,1990.6,266.5,3535.6,304.6,763.3,1949.8,3515.9,230.3,50,-203.4
0.215000,852.0,278.4,1990.3,221.9,3538.4,253.9,797.2,1952.4,3501.5,230.2,49.3,-200
0.217000,862.0,248.1,1987.7,198.5,3533.1,224.4,829.8,1954.8,3487.8,230.1,48,-200
0.219000,884.6,268.5,1978.2,199.5,3509.6,223.5,860.5,1956.9,3474.9,230,47.9,-200
0.221000,921.0,281.2,1962.9,225.6,3462.6,225.9,888.9,1958.8,3463.1,229.9,46.8,-200
0.223000,946.6,242.3,1946.2,264.5,3415.7,203.5,914.5,1960.4,3452.4,0,46.9,-200
0.225000,953.1,195.5,1932.0,302.8,3390.7,177.8,937,1961.8,3443.1,0,46.3,-200
0.227000,949.2,167.2,1928.2,299.4,3383.5,170.6,955.9,1963,3435.3,0,46.1,-200
0.229000,938.9,155.9,1935.6,234.2,3388.8,180.3,970.9,1963.9,3429.1,0,45.7,-200
0.231000,922.8,164.2,1942.1,157.8,3409.5,201.8,981.8,1964.5,3424.6,0,45.5,-200
0.233000,905.5,182.7,1942.1,110.1,3442.4,227.2,988.4,1964.9,3421.9,0,45.3,-200
0.235000,902.3,193.6,1941.5,91.4,3472.4,251.1,990.6,1965,3421,0,45.4,-200
