time,f1,b1,f2,b2,f3,b3,f1p,f2p,f3p,f0,intensity,harmonicity
0.026000,874.2,132.3,1974.5,354.1,3335.4,149.2,873.8,1980.6,3350.4,226.3,67.1,14.7
0.028000,874.6,138.0,1969.0,272.6,3343.3,187.3,875.3,1982.2,3350.4,226.7,66.9,14.6
0.030000,877.5,147.1,1975.5,218.5,3353.4,237.0,877.6,1984.6,3350.5,227,66.7,14.4
0.032000,881.8,156.4,1984.3,187.4,3358.3,260.0,880.6,1987.8,3350.3,227.4,66.4,14
0.034000,886.1,160.9,1993.5,169.7,3355.7,246.3,884.2,1991.3,3349.8,227.7,66.2,13.8
0.036000,889.6,158.8,2004.4,157.8,3350.9,215.6,888,1994.9,3348.6,228.2,66,13.9
0.038000,892.0,151.1,2014.0,148.0,3347.4,187.9,891.9,1998.3,3346.8,228.6,65.7,14.3
0.040000,894.7,140.5,2019.1,138.1,3345.2,171.0,895.7,2001,3344.1,229,65.5,14.7
0.042000,897.7,130.8,2018.0,133.1,3345.1,172.7,899.3,2002.9,3340.5,229.5,65.3,15.1
0.044000,900.5,123.4,2012.4,138.2,3347.4,197.0,902.5,2003.6,3336,230,65,15.3
0.046000,903.4,117.2,2002.7,153.5,3348.2,231.2,905.3,2002.9,3330.6,230.5,64.8,15.1
0.048000,906.3,114.0,1990.5,168.3,3334.8,220.6,907.7,2000.8,3324.7,231,64.6,14.5
0.050000,909.6,118.2,1980.5,172.8,3309.3,167.0,909.7,1997.1,3318.5,231.5,64.4,13.6
0.052000,912.5,130.5,1976.5,171.2,3291.3,130.4,911.6,1992,3312.2,232,64.1,12.7
0.054000,914.0,140.3,1973.7,169.5,3282.2,118.6,913.4,1985.5,3306.2,232.5,63.9,11.9
0.056000,914.8,142.8,1971.0,167.8,3277.7,119.1,915.3,1977.8,3301,233,63.7,11.4
0.058000,916.1,140.4,1969.1,166.9,3277.4,128.8,917.5,1969.2,3296.6,233.5,63.4,10.8
0.060000,918.6,139.2,1965.4,167.1,3285.1,151.4,919.9,1960,3293.5,234,63.1,10.4
0.062000,922.8,142.8,1956.5,162.4,3303.2,179.0,922.8,1950.4,3291.8,234.5,62.8,10.1
0.064000,927.8,144.7,1945.2,150.6,3318.4,187.6,926.1,1940.8,3291.6,234.9,62.6,10.2
0.066000,933.1,137.9,1935.0,137.2,3323.2,175.8,929.7,1931.4,3292.7,235.4,62.4,10.8
0.068000,938.1,123.0,1927.4,127.1,3322.4,160.9,933.5,1922.6,3295.2,235.9,62.2,12
0.070000,942.7,106.5,1920.8,122.0,3320.7,154.7,937.4,1914.5,3298.6,236.3,62.1,13.6
0.072000,945.9,97.0,1914.0,123.0,3317.4,161.6,941.1,1907.4,3302.8,236.7,62,15.2
0.074000,946.4,94.8,1905.3,126.5,3309.6,178.0,944.4,1901.4,3307.4,237.1,61.8,16.6
0.076000,944.5,97.4,1893.9,130.0,3294.2,203.8,947.2,1896.6,3312,237.4,61.7,17.4
0.078000,942.3,104.0,1886.0,135.0,3278.1,230.3,949.2,1892.9,3316.4,237.8,61.6,18
0.080000,941.9,112.1,1885.6,141.1,3275.4,238.3,950.5,1890.6,3320.2,238.1,61.5,18.3
0.082000,943.2,118.9,1889.9,145.4,3294.5,216.4,950.9,1889.4,3323.5,238.4,61.4,18.4
0.084000,944.9,125.0,1891.7,149.9,3319.5,180.1,950.5,1889.5,3326.1,238.7,61.4,18.4
0.086000,946.7,131.8,1889.3,159.9,3337.0,146.1,949.6,1890.7,3328.2,238.9,61.4,18.3
0.088000,948.1,135.7,1887.0,172.8,3343.4,125.7,948.2,1893,3329.8,239.2,61.4,17.9
0.090000,948.7,132.5,1888.0,179.6,3343.4,116.3,946.8,1896.3,3331.4,239.4,61.3,17.4
0.092000,948.6,121.9,1892.7,173.1,3342.6,117.4,945.6,1900.6,3333.3,239.6,61.3,16.8
0.094000,949.5,113.0,1901.3,160.8,3347.8,133.8,945.1,1905.7,3335.9,239.7,61.2,16.4
0.096000,952.7,111.8,1914.5,147.9,3361.1,175.3,945.5,1911.7,3339.5,239.9,61,16.2
0.098000,955.8,119.6,1927.9,134.4,3371.7,237.3,947.2,1918.3,3344.5,240,60.9,16.4
0.100000,958.0,137.7,1937.8,121.9,3370.9,311.4,950.4,1925.5,3351.1,240.1,60.7,16.6
0.102000,962.4,162.8,1943.3,114.7,3366.3,369.2,955.1,1933.1,3359.5,240.2,60.4,16.8
0.104000,970.0,185.3,1947.9,111.4,3369.9,385.7,961.3,1941.1,3369.5,240.2,60.1,16.7
0.106000,976.9,200.0,1953.5,105.8,3370.3,384.9,968.9,1949.2,3381.1,240.3,59.8,16.2
0.108000,978.3,212.2,1958.6,97.9,3365.7,398.6,977.7,1957.2,3393.8,240.3,59.4,15.2
0.110000,974.9,232.6,1962.1,90.9,3368.5,403.1,987.1,1965,3407.3,240.3,58.9,13.9
0.112000,971.0,255.8,1962.2,87.7,3382.7,370.2,996.8,1972.3,3420.8,240.3,58.3,12.5
0.114000,972.4,274.0,1960.5,89.4,3403.3,320.8,1006.3,1979,3433.8,240.3,57.6,11.3
0.116000,981.4,296.8,1962.2,96.1,3430.0,279.3,1014.9,1984.7,3445.6,240.3,56.9,11.4
0.118000,997.9,337.8,1972.7,103.9,3459.9,259.8,1022.3,1989.4,3455.6,240.2,56,16.3
0.120000,1022.8,418.4,1991.7,110.4,3489.7,259.6,1027.9,1992.9,3463.1,240.2,55.1,22.1
0.122000,1056.2,561.4,2011.4,121.3,3505.1,275.2,1031.4,1995,3467.8,240.2,54.1,23.9
0.124000,1103.3,757.8,2026.7,145.3,3496.1,298.4,1032.6,1995.7,3469.4,240.1,53.1,16.7
