time,f1,b1,f2,b2,f3,b3,f1p,f2p,f3p,f0,intensity,harmonicity
0.025000,750.8,156.8,2301.7,252.0,3648.3,222.5,788.1,2315.5,3685.2,111.3,71.1,6.2
0.027000,759.1,148.9,2289.5,246.3,3642.3,295.4,788.2,2312.4,3683.9,111.4,71.1,6.6
0.029000,763.2,136.4,2285.5,232.7,3651.5,358.1,788.5,2307.5,3681.9,111.5,71.1,6.9
0.031000,766.0,129.6,2284.3,226.6,3671.2,388.6,789,2300.8,3679.3,111.6,71,7.1
0.033000,770.7,129.6,2279.9,240.5,3687.7,401.5,789.8,2292.4,3675.9,111.8,71,7.1
0.035000,778.4,127.0,2269.8,265.0,3700.6,424.2,791,2282.7,3672.1,111.9,70.8,6.9
0.037000,786.7,117.1,2259.9,282.2,3712.8,420.9,792.8,2271.7,3667.9,112.1,70.7,6.3
0.039000,792.8,107.1,2258.0,305.1,3705.7,331.0,795.1,2259.9,3663.4,112.3,70.5,5.2
0.041000,798.8,108.8,2266.0,343.7,3693.9,238.9,798.1,2247.4,3658.8,112.5,70.3,4
0.043000,814.5,127.8,2272.8,353.5,3681.0,180.8,802,2234.6,3654.3,112.7,70.3,3.1
0.045000,840.6,135.7,2254.3,300.6,3667.4,150.7,806.8,2221.7,3650,112.9,70.3,2.8
0.047000,860.2,121.7,2232.0,242.6,3656.6,131.6,812.5,2209,3646,113.1,70.4,3.2
0.049000,869.9,108.5,2217.0,208.0,3647.1,117.3,819.1,2196.7,3642.5,113.3,70.6,4.3
0.051000,874.0,105.0,2205.2,198.0,3634.7,108.0,826.7,2185.1,3639.7,113.5,70.7,5.6
0.053000,875.7,107.8,2193.1,208.2,3615.7,104.4,835.2,2174.3,3637.5,113.8,70.7,6.8
0.055000,877.2,109.6,2181.5,235.2,3597.5,108.9,844.4,2164.5,3636.2,114,70.7,7.6
0.057000,881.0,106.7,2167.3,273.3,3589.3,128.6,854.2,2155.8,3635.8,114.3,70.7,7.9
0.059000,887.0,102.7,2147.9,303.1,3592.1,172.1,864.4,2148.2,3636.3,114.5,70.7,7.9
0.061000,892.6,102.5,2133.8,298.5,3597.6,226.5,874.9,2141.8,3637.8,114.7,70.6,7.8
0.063000,896.2,105.1,2132.1,272.6,3603.1,268.3,885.4,2136.5,3640.3,115,70.6,7.7
0.065000,896.5,107.6,2138.1,253.7,3616.8,288.8,895.5,2132.1,3643.8,115.2,70.5,7.7
0.067000,894.6,111.9,2143.9,257.3,3648.3,309.7,905.2,2128.7,3648.2,115.5,70.4,7.8
0.069000,892.4,124.2,2141.7,298.8,3697.8,337.9,914.1,2126.1,3653.4,115.7,70.2,7.9
0.071000,889.4,144.1,2127.1,374.1,3739.4,351.2,921.8,2124,3659.4,115.9,70,8
0.073000,884.3,164.2,2100.6,448.8,3755.8,345.1,928.4,2122.4,3666.2,116.2,69.7,8.2
0.075000,879.0,177.5,2074.8,459.7,3744.5,321.3,933.4,2121,3673.5,116.4,69.5,8.5
0.077000,878.0,183.8,2059.5,382.7,3708.1,276.2,936.7,2119.7,3681.2,116.6,69.2,9.2
0.079000,883.4,179.8,2055.6,277.8,3667.0,216.8,938.3,2118.2,3689.4,116.8,69,10.1
0.081000,888.8,169.3,2059.7,216.5,3652.4,170.3,938.1,2116.5,3697.7,117.1,68.8,11
0.083000,892.5,159.1,2068.9,191.6,3660.0,142.2,936,2114.3,3706.2,117.3,68.7,11.8
0.085000,898.6,154.9,2082.3,197.4,3674.7,134.1,932.1,2111.5,3714.7,117.5,68.5,12.2
0.087000,909.6,155.1,2099.3,236.7,3688.5,154.7,926.5,2108.1,3723,117.7,68.3,12
0.089000,921.8,150.7,2112.7,304.9,3697.4,228.8,919.4,2104.1,3731.1,117.9,68.1,11.4
0.091000,926.1,152.6,2124.1,388.0,3713.1,321.3,911,2099.3,3738.9,118,68,10.7
0.093000,922.6,170.6,2139.7,493.1,3750.7,383.2,901.6,2093.9,3746.3,118.2,67.8,10
0.095000,916.6,199.4,2152.9,607.1,3778.4,421.6,891.5,2087.9,3753.3,118.4,67.6,9.6
0.097000,913.9,220.9,2161.0,687.3,3785.9,458.4,881.1,2081.3,3759.7,118.5,67.3,9.6
0.099000,914.7,220.4,2163.1,691.9,3788.0,478.8,870.7,2074.4,3765.6,118.7,67.1,9.7
0.101000,915.5,208.9,2153.1,644.8,3799.9,462.9,860.8,2067.2,3770.8,118.8,66.8,10
0.103000,915.5,210.8,2124.6,607.8,3821.9,422.5,851.6,2059.9,3775.4,118.9,66.6,10.4
0.105000,915.0,244.5,2080.6,615.3,3829.0,400.1,843.5,2052.7,3779.5,119,66.3,11.1
0.107000,911.3,287.4,2022.9,575.1,3789.5,383.4,836.9,2045.8,3782.9,119.1,66,12.2
0.109000,900.1,328.2,1981.3,475.0,3743.0,327.3,832.1,2039.2,3785.6,119.2,65.7,13.6
0.111000,874.5,398.6,1963.7,400.4,3737.5,280.6,829.3,2033.3,3787.8,119.3,65.5,15.1
0.113000,829.9,492.3,1959.7,330.3,3751.5,244.7,828.8,2028.1,3789.4,119.4,65.2,16.5
0.115000,791.5,561.3,1966.6,270.1,3766.5,213.2,830.6,2023.9,3790.4,119.4,64.9,17.3
0.117000,789.2,593.8,1978.1,233.7,3776.8,185.3,834.9,2020.6,3790.9,119.5,64.6,17.4
0.119000,811.9,613.2,1988.0,222.3,3784.3,168.3,841.6,2018.3,3790.9,119.5,64.3,17.1
0.121000,832.6,640.6,1992.6,226.2,3792.6,175.8,850.7,2017.2,3790.3,119.6,63.9,16.6
0.123000,849.8,675.7,1995.2,229.6,3800.4,206.8,862.1,2017.3,3789.4,119.6,63.5,16
0.125000,860.6,716.4,2000.9,226.5,3799.3,240.5,875.7,2018.5,3788,119.6,63,15.6
0.127000,856.7,775.8,2012.1,227.5,3787.4,262.4,891.1,2020.8,3786.1,119.6,62.5,15.3
0.129000,834.6,855.0,2032.0,246.4,3774.9,283.6,908.1,2024.1,3783.9,119.6,62,15.1
0.131000,820.7,899.5,2063.8,284.3,3771.7,325.2,926.5,2028.4,3781.3,119.6,61.4,14.8
0.133000,840.0,881.7,2103.3,326.0,3776.0,390.6,945.9,2033.5,3778.4,119.5,60.8,14.5
0.135000,858.6,890.7,2120.4,349.5,3784.6,460.7,966,2039.4,3775.2,119.5,60.1,14.1
0.137000,860.4,990.1,2102.0,356.5,3793.9,525.9,986.4,2045.8,3771.7,119.5,59.4,16.8
0.139000,900.9,1104.3,2061.8,360.3,3800.5,567.5,1006.9,2052.7,3767.9,119.5,58.6,22.6
0.141000,1030.2,1050.5,2024.8,385.6,3802.5,559.6,1027,2059.9,3764,119.5,57.7,26.8
0.143000,1152.6,870.3,2002.4,434.0,3796.5,516.2,1046.6,2067.2,3759.8,119.4,56.7,24.3
0.145000,1213.4,714.4,2009.2,466.8,3786.5,462.5,1065.5,2074.6,3755.5,119.4,55.7,10.3
0.147000,1234.4,605.0,2048.7,443.7,3778.4,405.8,1083.2,2081.9,3751.1,119.4,54.5,-21.9
0.149000,1232.0,545.5,2096.9,352.8,3766.4,364.8,1099.9,2088.9,3746.6,119.4,53.3,-69.1
0.151000,1220.6,532.8,2123.2,254.2,3739.1,349.1,1115.2,2095.7,3742.2,119.4,52,-121.1
0.153000,1207.6,526.7,2134.1,183.8,3695.4,319.6,1129.1,2102,3737.8,119.3,50.7,-168.1
0.155000,1196.7,499.6,2139.9,144.1,3663.7,260.7,1141.5,2108,3733.5,119.3,49.5,-200
0.157000,1192.3,462.5,2142.8,124.4,3650.1,214.0,1152.5,2113.4,3729.4,119.3,48.1,-213.5
0.159000,1199.7,429.8,2141.5,120.8,3644.8,199.3,1162.1,2118.2,3725.5,0,47,-215.1
0.161000,1212.0,416.5,2137.2,132.1,3644.8,221.3,1170.3,2122.5,3721.9,0,45.8,-210.1
0.163000,1210.8,425.5,2134.8,156.7,3657.1,290.3,1177.2,2126.3,3718.7,0,44.8,-203.4
0.165000,1181.7,435.9,2138.6,182.5,3699.7,420.8,1182.9,2129.4,3715.9,0,44.4,-200
0.167000,1134.8,414.3,2141.9,193.4,3790.0,565.7,1187.4,2131.9,3713.5,0,43.6,-200
0.169000,1099.7,369.9,2131.4,183.0,3819.1,553.9,1190.8,2133.9,3711.6,0,43.7,-200
0.171000,1088.0,344.6,2110.2,168.4,3768.4,433.4,1193.2,2135.3,3710.2,0,43.1,-200
0.173000,1101.3,347.2,2095.7,157.3,3728.8,312.6,1194.6,2136.2,3709.4,0,43.2,-200
0.175000,1135.8,355.8,2097.6,151.1,3712.9,242.1,1195,2136.4,3709.1,0,42.5,-200
