time,f1,b1,f2,b2,f3,b3,f1p,f2p,f3p,f0,intensity,harmonicity
0.025000,815.3,86.3,1834.4,90.1,3287.2,228.2,853.6,1800.7,3292.3,182.9,71.5,9.8
0.027000,827.7,90.1,1821.7,91.6,3297.8,214.2,853.9,1799.4,3288.6,182.7,71.3,10.3
0.029000,839.5,93.6,1808.5,94.8,3302.9,204.0,854.5,1797.2,3282.6,182.4,71,10.8
0.031000,850.0,97.8,1796.5,100.3,3299.6,207.9,855.4,1794,3274.5,182.2,70.7,11.1
0.033000,858.7,103.4,1785.8,108.5,3289.1,230.2,856.7,1790,3264.4,182,70.4,11.2
0.035000,865.0,109.4,1776.1,117.1,3268.9,265.6,858.5,1785,3252.8,181.7,70.1,11
0.037000,870.8,115.2,1766.5,123.2,3236.0,299.6,860.8,1779.1,3239.9,181.5,69.8,10.5
0.039000,877.0,119.2,1758.0,125.9,3200.9,313.3,863.8,1772.3,3226.1,181.2,69.5,9.6
0.041000,884.2,121.1,1750.7,128.2,3175.6,309.2,867.4,1764.7,3211.8,181,69.1,8.5
0.043000,891.6,121.9,1742.7,133.6,3163.1,301.4,871.9,1756.3,3197.4,180.7,68.7,7.5
0.045000,898.2,123.7,1733.6,142.0,3158.7,298.1,877.1,1747.2,3183.1,180.5,68.3,6.7
0.047000,905.1,129.3,1724.7,151.3,3154.3,296.4,883.1,1737.6,3169.4,0,68,6.2
0.049000,913.1,139.7,1714.9,158.5,3145.3,290.2,889.8,1727.5,3156.5,0,67.7,5.9
0.051000,918.4,144.7,1705.1,154.8,3135.9,274.7,897.2,1717.2,3144.7,0,67.5,5.6
0.053000,918.7,135.1,1698.1,140.3,3130.2,253.0,905,1706.8,3134.2,0,67.3,5.3
0.055000,916.9,119.6,1694.4,125.3,3128.3,231.9,913.3,1696.5,3125,0,67,4.8
0.057000,914.9,104.4,1692.2,112.8,3128.7,212.0,921.7,1686.6,3117.2,0,66.5,4
0.059000,913.1,91.4,1690.8,103.4,3130.0,194.4,930,1677.3,3110.9,0,65.8,2.8
0.061000,912.2,82.6,1688.7,99.5,3130.8,184.1,938.1,1668.8,3105.9,0,64.7,1.7
0.063000,918.5,91.9,1680.3,118.9,3127.9,204.2,945.7,1661.3,3102.1,0,63.5,1
0.065000,943.5,138.9,1658.0,186.8,3115.1,276.7,952.6,1654.9,3099.5,0,62.4,1
0.067000,962.8,162.2,1647.9,218.4,3103.7,302.6,958.6,1649.9,3097.8,0,61.8,2.2
0.069000,966.4,154.5,1649.4,206.6,3104.8,282.5,963.4,1646.2,3096.7,0,61.6,4.5
0.071000,963.2,143.6,1651.5,191.7,3110.4,261.5,967,1643.9,3096.2,0,61.7,7
0.073000,956.0,139.9,1653.5,184.4,3110.9,251.9,969.3,1643.1,3096,0,61.9,9
0.075000,946.2,145.3,1655.4,182.4,3098.0,254.0,970.1,1643.6,3095.9,0,62,9.7
0.077000,940.2,146.8,1655.8,175.0,3080.5,253.4,969.4,1645.3,3095.7,0,62,11.7
0.079000,939.8,138.6,1655.7,160.4,3069.8,241.9,967.4,1648.1,3095.3,0,61.8,15.6
0.081000,941.6,126.3,1655.5,144.9,3067.1,224.1,964,1651.8,3094.6,0,61.3,17.3
0.083000,943.1,113.7,1654.4,132.3,3069.9,205.8,959.5,1656.1,3093.6,0,60.4,12.9
0.085000,942.6,101.9,1650.9,125.3,3076.9,193.0,954.1,1660.7,3092.2,0,59.1,-1.6
0.087000,942.1,92.1,1645.0,122.0,3082.0,188.0,947.8,1665.5,3090.5,0,57.3,-35.7
0.089000,952.1,101.0,1647.4,119.6,3080.7,169.7,941.1,1670,3088.6,0,55.1,-86.7
0.091000,994.1,198.6,1662.0,133.1,3085.2,164.7,934.1,1674.1,3086.5,0,52.3,-140.5
0.093000,1070.3,439.1,1668.8,167.4,3093.5,202.8,927.1,1677.5,3084.4,0,49.6,-182.9
0.095000,1071.9,584.4,1680.3,199.0,3104.0,238.4,920.4,1680,3082.5,0,48.1,-200
0.097000,989.2,601.2,1695.9,232.1,3105.7,259.8,914.1,1681.6,3080.9,0,48.6,-182
0.099000,883.5,552.3,1696.7,273.1,3093.4,278.9,908.5,1682,3079.9,0,50.2,-138.4
0.101000,826.3,460.9,1678.7,306.4,3078.8,291.0,903.7,1681.4,3079.6,0,52.1,-83.6
0.103000,816.0,390.8,1656.5,323.8,3074.0,297.5,899.8,1679.7,3080.1,0,53.7,-32.1
0.105000,825.4,356.5,1640.9,334.3,3081.3,289.7,897,1677,3081.6,0,54.8,1.5
0.107000,838.4,350.8,1633.5,345.9,3091.7,266.4,895.1,1673.6,3084.3,0,55.6,17.1
0.109000,850.6,373.1,1635.8,372.3,3094.8,242.6,894.2,1669.6,3088.1,0,56.1,24.5
0.111000,860.8,427.4,1653.6,423.0,3087.1,239.8,894.2,1665.2,3093.2,0,56.2,23.8
0.113000,869.8,509.4,1686.1,479.7,3077.2,259.7,895,1660.8,3099.6,0,56,15.1
0.115000,882.4,603.7,1716.8,494.6,3079.9,277.6,896.5,1656.7,3107.1,0,55.5,-1.2
0.117000,906.9,661.3,1723.6,444.9,3098.9,267.3,898.4,1653.1,3115.8,0,55,-31.6
0.119000,927.1,604.4,1711.0,350.9,3123.8,241.1,900.6,1650.4,3125.6,0,54.5,-76.1
0.121000,925.2,485.2,1695.1,273.1,3149.0,224.9,902.9,1648.6,3136.3,0,54.1,-125.4
0.123000,919.7,384.0,1681.7,237.8,3174.7,220.7,905.2,1648.1,3147.7,0,53.8,-169.8
0.125000,922.1,314.1,1669.1,235.9,3196.0,225.6,907.2,1649,3159.7,0,53.6,-200
0.127000,930.0,280.3,1653.3,253.3,3208.6,241.9,909,1651.4,3172.1,0,53.4,-212.7
0.129000,940.7,280.7,1631.2,272.8,3213.7,270.8,910.2,1655.2,3184.7,0,53,-214.3
0.131000,949.2,309.9,1611.6,262.4,3211.4,304.4,911,1660.3,3197.2,0,52.3,-209.5
0.133000,945.5,349.2,1606.9,209.7,3203.0,339.6,911.2,1666.7,3209.6,0,51.6,-203.2
0.135000,922.2,376.6,1617.2,147.6,3195.2,366.2,911,1674.1,3221.5,0,50.8,-200
0.137000,890.6,368.5,1631.3,106.5,3194.1,367.9,910.2,1682.3,3232.9,0,49.9,-200
0.139000,875.1,322.1,1643.8,87.0,3197.5,349.9,909.1,1690.9,3243.5,0,48.9,-200
0.141000,886.8,268.0,1656.3,85.6,3206.2,315.0,907.7,1699.6,3253.2,0,48,-200
0.143000,912.0,222.4,1674.9,97.4,3220.3,264.2,906.1,1708.1,3261.8,0,47.1,-200
0.145000,930.8,188.3,1701.8,117.6,3235.6,217.2,904.5,1716,3269.4,0,46,-200
0.147000,932.6,169.5,1735.9,151.1,3257.4,185.8,903,1722.9,3275.6,0,45.1,-200
0.149000,914.5,171.1,1768.0,211.3,3286.1,175.3,901.7,1728.7,3280.6,0,44.2,-200
0.151000,888.8,190.3,1788.6,317.4,3314.2,185.2,900.6,1733,3284.2,0,43.7,-200
0.153000,869.2,237.9,1787.1,462.6,3335.6,219.8,900,1735.6,3286.3,0,43.6,-200
0.155000,855.0,322.9,1776.3,577.6,3355.9,276.7,899.8,1736.5,3287.1,0,43.6,-200
