time,f1,b1,f2,b2,f3,b3,f1p,f2p,f3p,f0,intensity,harmonicity
0.026000,848.2,107.9,1638.0,84.3,3447.9,278.5,870.5,1633.7,3468.3,167.9,68.4,12
0.028000,859.0,113.7,1640.2,84.0,3450.4,243.5,872.7,1635.5,3468.6,167.8,68.2,10.9
0.030000,868.6,124.0,1643.7,89.1,3454.6,210.0,876.2,1638.3,3469.3,167.7,68,9.5
0.032000,878.7,135.8,1647.2,97.4,3460.8,191.8,880.9,1641.8,3470.5,167.7,67.6,8.3
0.034000,891.9,141.2,1649.3,104.6,3470.9,194.6,886.6,1645.5,3472.4,167.7,67.3,7.6
0.036000,906.8,137.7,1648.9,114.1,3487.1,211.8,893,1649,3475,167.7,66.9,8
0.038000,917.7,131.8,1646.0,132.3,3502.7,226.6,899.8,1651.9,3478.6,167.7,66.5,9.6
0.040000,923.8,128.9,1642.8,160.7,3512.6,232.9,906.7,1653.8,3483,167.7,66.1,11.8
0.042000,927.1,130.1,1643.4,192.0,3516.6,236.3,913.5,1654.6,3488.3,167.7,65.6,14
0.044000,929.5,132.3,1647.5,210.1,3516.9,243.5,919.9,1654.2,3494.2,167.8,65.2,15.8
0.046000,931.6,131.0,1648.4,198.4,3514.9,258.9,925.7,1652.6,3500.4,167.9,64.8,16.7
0.048000,932.7,125.8,1643.8,164.4,3513.0,289.0,930.8,1650.1,3506.3,168,64.3,17.1
0.050000,932.7,121.3,1639.6,132.1,3509.4,345.6,935,1647.3,3511.5,168.1,63.9,17.1
0.052000,932.0,122.7,1640.7,116.3,3493.3,408.6,938.3,1644.6,3515.4,168.3,63.4,16.8
0.054000,931.2,130.3,1646.6,115.6,3475.0,402.2,940.9,1642.6,3517.3,168.5,62.9,16.3
0.056000,930.2,140.4,1654.5,122.1,3481.1,335.0,942.9,1642,3516.8,168.7,62.5,15.7
0.058000,929.4,144.3,1660.5,122.6,3494.9,268.7,944.5,1643.3,3513.5,169,62,14.9
0.060000,928.5,139.4,1662.9,111.6,3504.3,226.0,946.1,1647.1,3507.2,169.3,61.7,13.8
0.062000,928.3,135.3,1662.8,102.2,3509.1,212.9,948,1653.5,3497.7,169.6,61.3,12.6
0.064000,932.3,146.1,1664.5,113.9,3503.6,238.0,950.4,1662.8,3485.4,169.9,61,11.5
0.066000,946.5,173.3,1672.9,160.6,3480.8,312.8,953.9,1674.8,3470.6,170.3,60.8,10.5
0.068000,971.4,189.7,1690.6,224.6,3449.7,407.7,958.7,1689,3454,170.7,60.6,9.4
0.070000,996.2,178.9,1712.5,260.4,3423.8,465.8,965,1705,3436.4,171.2,60.4,8.4
0.072000,1009.8,155.8,1725.9,258.5,3412.2,450.5,972.9,1721.9,3418.7,171.6,60.2,7.4
0.074000,1013.5,135.1,1728.3,250.6,3410.4,371.6,982.6,1739,3401.8,172.1,59.9,6.6
0.076000,1012.4,125.0,1724.8,268.2,3406.4,270.0,993.8,1755.2,3386.7,172.6,59.6,5.9
0.078000,1011.6,131.9,1725.8,332.8,3395.1,206.2,1006.4,1769.6,3374.2,173.1,59.3,5.5
0.080000,1014.0,149.0,1751.0,414.1,3379.4,187.9,1019.9,1781.4,3365,173.6,59,5.2
0.082000,1018.9,160.4,1799.4,420.5,3367.7,192.4,1034,1789.9,3359.5,174.2,58.8,5
0.084000,1026.6,167.5,1830.6,367.4,3366.4,190.2,1047.9,1794.5,3357.8,174.7,58.7,4.9
0.086000,1037.5,188.5,1828.5,304.9,3371.9,176.0,1061,1795,3360,175.3,58.4,5
0.088000,1050.2,247.2,1807.3,256.0,3376.4,168.5,1072.5,1791.5,3365.6,175.8,58.2,5.4
0.090000,1063.5,375.6,1784.1,227.9,3374.5,182.6,1081.9,1784,3373.9,176.3,57.7,6
0.092000,1070.4,592.4,1762.7,217.9,3363.4,224.4,1088.3,1773.2,3384.2,176.9,57.2,6.5
0.094000,1069.1,794.2,1746.7,226.0,3348.9,280.4,1091.4,1759.6,3395.5,177.4,56.6,6.8
0.096000,1099.4,733.2,1743.0,286.1,3350.5,315.9,1090.7,1744,3406.9,177.9,56,7.6
0.098000,1130.6,493.2,1751.4,376.7,3373.8,312.8,1086,1727.2,3417.3,178.3,55.5,12.5
0.100000,1126.1,343.5,1735.9,391.2,3402.5,289.4,1077.2,1710.1,3426.1,178.8,54.9,17.9
0.102000,1104.1,291.3,1699.7,321.3,3430.0,264.1,1064.7,1693.5,3432.4,179.3,54.3,19.3
0.104000,1069.6,288.5,1671.7,256.2,3455.9,256.4,1048.7,1677.9,3436,179.7,53.7,11.8
0.106000,1012.1,294.8,1648.6,216.5,3480.5,267.1,1029.9,1664,3436.7,180.1,53,-9.8
0.108000,960.7,253.4,1631.0,187.1,3498.4,274.5,1009.2,1652,3434.6,180.4,52.2,-49.3
0.110000,946.5,201.2,1620.9,168.8,3490.4,264.3,987.4,1642.1,3430.1,180.8,51.5,-98.5
0.112000,952.3,172.3,1614.5,164.8,3457.8,230.8,965.7,1634.2,3423.9,181.1,50.7,-147.6
0.114000,953.9,159.8,1608.4,164.6,3432.6,188.7,945,1628.3,3416.6,181.4,49.8,-187
0.116000,943.4,155.9,1609.4,161.1,3416.4,164.3,926.3,1624.1,3409.1,181.7,49.4,-208.2
0.118000,928.0,161.2,1623.5,158.8,3400.0,163.6,910.8,1621.2,3402.2,182,48.8,-214.9
0.120000,914.7,184.6,1641.3,166.3,3377.7,185.1,899,1619.4,3396.7,182.2,48.5,-212.7
0.122000,900.2,248.6,1648.8,195.1,3351.4,231.2,891.7,1618.4,3393.1,182.4,48.6,-206.4
0.124000,860.6,427.8,1631.7,266.7,3333.2,305.1,889.2,1618.1,3391.9,182.6,48.7,-200.9
