time,f1,b1,f2,b2,f3,b3,f1p,f2p,f3p,f0,intensity,harmonicity
0.026000,887.4,110.3,1798.7,222.5,3261.1,379.2,886.7,1781.1,3256.6,182.9,72,8.3
0.028000,893.2,107.6,1798.1,257.9,3218.3,437.4,887.5,1780.9,3254.7,182.8,72,9.8
0.030000,895.2,105.2,1799.1,275.8,3201.8,484.7,888.8,1780.6,3251.7,182.6,72.1,11.6
0.032000,894.6,105.7,1801.6,288.7,3238.0,486.1,890.4,1780.1,3247.6,182.4,72.2,13.4
0.034000,893.4,106.2,1799.7,316.3,3284.1,442.2,892.3,1779.2,3242.9,182.2,72.3,15
0.036000,892.9,102.9,1788.8,363.6,3295.1,414.7,894.3,1777.9,3237.6,182,72.4,16.2
0.038000,893.8,93.5,1768.2,400.4,3273.7,422.0,896.2,1776.2,3232,181.8,72.4,17.3
0.040000,895.0,80.2,1749.9,377.0,3232.0,420.9,897.9,1773.8,3226.5,181.6,72.5,18.2
0.042000,895.5,68.2,1740.7,321.6,3202.6,376.7,899.2,1770.8,3221.2,181.3,72.5,18.9
0.044000,895.3,60.8,1733.0,276.0,3196.8,323.6,899.9,1767.3,3216.4,181.1,72.4,19.4
0.046000,894.4,57.7,1722.7,251.9,3200.4,289.1,900,1763.1,3212.2,180.9,72.3,19.7
0.048000,893.0,57.3,1714.3,237.3,3205.5,277.2,899.3,1758.4,3208.8,180.6,72.2,19.8
0.050000,891.5,58.9,1718.0,222.6,3212.4,288.4,897.7,1753.3,3206.1,180.4,72.1,19.6
0.052000,890.7,62.0,1734.1,201.2,3216.9,309.7,895.4,1747.9,3204.2,180.1,71.9,19.4
0.054000,890.0,65.0,1750.7,173.2,3206.4,335.3,892.3,1742.5,3202.9,179.8,71.8,19.1
0.056000,888.7,65.8,1757.7,147.3,3185.6,363.3,888.5,1737.3,3202,179.6,71.6,18.9
0.058000,885.9,64.5,1757.2,124.5,3175.0,391.8,884.1,1732.5,3201.5,179.3,71.4,18.8
0.060000,882.1,62.8,1753.0,107.1,3187.9,414.1,879.3,1728.4,3201.2,179,71.2,18.8
0.062000,878.3,62.0,1748.9,95.9,3207.8,422.5,874.4,1725,3200.7,178.8,71.1,18.6
0.064000,875.5,63.1,1746.8,94.1,3211.1,413.4,869.5,1722.6,3200,178.5,70.9,18.3
0.066000,873.9,65.8,1746.6,101.5,3201.0,394.1,864.9,1721.3,3198.8,178.2,70.7,17.7
0.068000,872.0,69.7,1747.1,116.6,3191.0,367.8,860.9,1721.1,3197.2,177.9,70.5,16.9
0.070000,868.9,74.1,1746.9,134.6,3185.8,334.0,857.6,1721.9,3195,177.6,70.3,16
0.072000,864.4,79.3,1743.9,151.2,3189.4,290.6,855.4,1723.7,3192.3,177.4,70,15
0.074000,858.9,85.7,1737.1,161.1,3205.6,239.2,854.3,1726.3,3189.3,177.1,69.6,14.2
0.076000,854.1,93.0,1728.6,164.6,3221.0,195.8,854.7,1729.3,3186,176.8,69.3,13.8
0.078000,850.7,102.9,1720.1,173.2,3220.3,172.2,856.5,1732.6,3182.8,176.5,68.9,13.7
0.080000,850.1,117.1,1713.3,194.9,3198.5,167.5,859.8,1735.8,3180,176.2,68.5,13.7
0.082000,851.6,133.9,1706.5,222.1,3168.3,164.9,864.6,1738.5,3177.7,175.9,68,13.8
0.084000,854.5,148.3,1700.3,241.6,3144.2,161.0,871,1740.5,3176.5,175.6,67.6,13.8
0.086000,858.7,159.3,1700.6,249.0,3133.1,162.0,878.6,1741.4,3176.5,175.2,67.1,13.4
0.088000,865.2,175.1,1712.0,238.2,3136.9,168.6,887.4,1741,3178,174.9,66.5,12.7
0.090000,877.6,203.1,1724.6,200.4,3160.0,167.4,897.2,1739.3,3181.2,174.6,65.9,12
0.092000,906.0,238.1,1726.1,155.2,3194.5,146.6,907.7,1736,3186.2,174.3,65.2,11.1
0.094000,950.8,244.2,1721.4,122.5,3222.1,119.9,918.5,1731.2,3193.1,174,64.6,10.3
0.096000,976.3,213.9,1719.7,101.9,3234.5,108.9,929.4,1725.1,3201.7,173.7,64,9.6
0.098000,974.0,176.9,1722.5,86.3,3235.2,119.0,940.2,1718,3211.8,173.3,63.4,8.9
0.100000,963.6,152.0,1726.2,76.7,3228.0,145.9,950.3,1710.1,3223.1,173,62.7,8.2
0.102000,955.8,141.7,1727.6,72.7,3221.5,179.0,959.6,1701.8,3235.3,172.7,62,7.5
0.104000,950.8,146.0,1726.1,72.5,3228.8,206.4,967.8,1693.8,3247.9,172.4,61.3,6.9
0.106000,948.0,163.4,1723.0,74.2,3253.5,203.0,974.7,1686.4,3260.4,172,60.4,7.4
0.108000,948.7,196.8,1719.4,80.0,3285.8,152.6,980,1680.1,3272.3,171.7,59.6,12.6
0.110000,958.7,252.0,1716.2,98.0,3301.7,100.1,983.6,1675.5,3283,171.4,58.8,18.7
0.112000,985.9,334.8,1712.3,136.3,3303.4,72.3,985.5,1672.9,3292.2,171.1,57.9,20.7
0.114000,1028.9,437.9,1702.4,191.9,3299.6,62.8,985.7,1672.7,3299.4,170.8,57.2,13.8
0.116000,1052.2,525.9,1684.0,232.7,3293.9,64.7,984.1,1675,3304.3,170.5,56.4,-7.8
0.118000,1016.9,583.8,1664.0,242.0,3285.9,78.4,981,1680.1,3306.8,170.3,55.7,-47.7
0.120000,943.5,610.2,1651.6,245.2,3278.9,110.6,976.4,1687.8,3306.8,170,55,-97.4
0.122000,879.3,623.4,1645.1,263.6,3281.6,163.5,970.7,1697.9,3304.4,169.7,54.3,-147.1
0.124000,885.9,634.9,1649.1,291.3,3299.6,201.9,963.9,1710.1,3299.7,169.5,53.6,-186.9
0.126000,963.2,611.0,1668.4,312.4,3315.0,206.3,956.5,1723.9,3293.2,169.3,52.8,-208.3
0.128000,1017.1,525.1,1695.9,309.3,3316.3,214.2,948.8,1738.9,3285.2,169,52.2,-215.1
0.130000,1007.5,458.6,1716.3,292.3,3303.2,245.6,940.9,1754.3,3276.2,168.8,51.6,-212.8
0.132000,959.5,411.2,1735.2,290.1,3279.5,306.3,933.4,1769.5,3266.9,168.7,50.8,-206.5
0.134000,905.5,362.3,1765.7,324.9,3250.1,403.7,926.4,1783.8,3257.7,168.5,50.1,-200.9
0.136000,876.8,330.2,1812.1,402.8,3226.8,518.0,920.3,1796.5,3249.3,168.3,49.3,-200
0.138000,874.0,332.7,1868.2,507.0,3218.3,618.5,915.3,1807.1,3242.2,168.2,48,-200
0.140000,888.1,377.1,1892.9,580.0,3221.8,674.1,911.6,1815,3236.8,168,46.8,-200
0.142000,914.7,463.0,1865.2,587.9,3230.9,688.9,909.3,1820,3233.4,167.9,45.5,-200
0.144000,968.1,580.8,1811.0,532.5,3261.4,675.9,908.5,1821.6,3232.2,167.8,44.2,-200
