time,f1,b1,f2,b2,f3,b3,f1p,f2p,f3p,f0,intensity,harmonicity
0.026000,831.6,84.3,1492.0,44.5,3248.8,166.9,886.9,1528.1,3285.9,183.1,83.3,4.7
0.028000,849.0,94.4,1489.8,47.9,3245.6,157.0,886.2,1527.8,3284,182.6,83,4.8
0.030000,867.1,98.4,1491.0,54.6,3242.8,144.3,885.2,1527.3,3281,182,82.7,5.2
0.032000,880.8,94.1,1496.7,64.9,3242.4,138.2,883.8,1526.6,3277,181.4,82.5,5.7
0.034000,888.1,84.6,1507.6,76.9,3244.7,140.7,882.3,1525.8,3272.1,180.8,82.5,6.3
0.036000,890.9,73.5,1523.7,84.6,3250.3,148.5,880.8,1525,3266.7,180.2,82.5,7
0.038000,891.9,64.4,1539.5,83.4,3259.7,157.0,879.6,1524.2,3261,179.6,82.6,8
0.040000,893.3,58.1,1550.7,76.8,3271.7,161.9,878.8,1523.6,3255.2,179,82.7,9.2
0.042000,895.8,55.0,1556.9,69.5,3281.9,158.5,878.6,1523.1,3249.6,178.3,82.8,10.4
0.044000,899.3,54.5,1559.1,62.8,3285.8,148.1,879.2,1522.8,3244.6,177.7,82.9,11.1
0.046000,903.8,56.0,1557.4,56.1,3283.3,133.7,880.7,1522.8,3240.3,177,82.9,11.4
0.048000,908.7,59.6,1553.4,49.8,3278.2,119.2,883.2,1523.1,3236.9,176.4,82.9,11
0.050000,912.9,64.9,1548.9,44.5,3274.3,109.0,886.8,1523.8,3234.6,175.8,82.8,10.3
0.052000,914.6,69.8,1545.1,40.7,3272.8,107.5,891.4,1524.8,3233.5,175.1,82.6,9.5
0.054000,913.0,71.7,1542.9,38.3,3273.2,117.2,897.1,1526,3233.7,174.5,82.5,8.9
0.056000,910.4,70.8,1542.6,37.3,3274.2,140.7,903.7,1527.6,3235.1,173.9,82.2,8.7
0.058000,910.1,70.1,1542.8,37.0,3272.8,171.6,911,1529.2,3237.6,173.3,82,8.9
0.060000,913.4,71.9,1541.4,36.4,3265.5,194.5,918.8,1531,3241.1,172.8,81.7,9.2
0.062000,919.5,76.6,1538.1,35.4,3253.6,200.3,926.9,1532.8,3245.5,172.3,81.5,9.5
0.064000,925.6,82.4,1533.0,34.8,3242.4,200.7,934.9,1534.4,3250.6,171.8,81.2,9.7
0.066000,929.6,88.2,1526.3,35.7,3234.4,209.6,942.6,1535.8,3256,171.3,81,9.5
0.068000,932.4,93.1,1519.2,38.3,3229.2,225.9,949.7,1536.7,3261.5,170.9,80.7,8.9
0.070000,936.2,96.4,1512.4,42.0,3226.1,238.3,955.8,1537.2,3266.9,170.5,80.4,8.1
0.072000,942.0,97.8,1506.2,46.5,3224.4,238.3,960.7,1537.1,3271.8,170.1,80.1,7.5
0.074000,948.4,97.7,1501.2,51.6,3223.9,229.7,964,1536.3,3276.2,169.8,79.8,7.1
0.076000,953.6,95.2,1497.9,56.7,3226.3,221.8,965.7,1534.7,3279.8,169.6,79.5,7.4
0.078000,956.9,91.1,1496.7,61.9,3233.1,219.5,965.6,1532.3,3282.4,169.4,79.1,8.4
0.080000,958.6,87.4,1497.8,69.4,3243.7,220.6,963.6,1529.1,3284.1,169.2,78.6,9.8
0.082000,957.7,85.2,1501.5,79.4,3255.2,223.3,959.8,1525.2,3284.8,169.1,78.1,11.1
0.084000,953.0,84.6,1507.1,90.1,3266.1,228.6,954.2,1520.4,3284.5,169,77.6,12
0.086000,943.8,86.0,1511.9,100.5,3277.3,234.2,947.1,1515.1,3283.5,169,77.1,12.1
0.088000,932.2,89.2,1512.6,107.0,3289.2,228.0,938.6,1509.2,3281.9,169,76.5,11.5
0.090000,920.8,93.4,1511.3,104.6,3298.7,203.6,929.2,1502.9,3279.9,169.1,75.9,10.4
0.092000,913.7,99.3,1511.9,94.2,3302.9,169.3,919.1,1496.5,3277.9,169.2,75.2,9.3
0.094000,912.5,106.4,1514.3,82.2,3305.7,135.9,908.8,1490,3276.1,169.4,74.5,8.3
0.096000,915.2,112.9,1515.9,72.0,3309.9,108.8,898.7,1483.8,3275,169.6,73.9,7.7
0.098000,915.2,117.3,1514.7,66.6,3315.4,94.6,889.4,1478,3274.8,169.8,73.2,7.4
0.100000,906.8,119.1,1510.2,70.6,3320.3,97.8,881.2,1472.8,3275.9,170.1,72.7,7.2
0.102000,893.7,115.7,1502.1,89.5,3321.5,118.0,874.5,1468.4,3278.5,170.4,72.3,7.1
0.104000,886.2,109.6,1490.6,123.4,3318.9,138.9,869.8,1465.1,3283,170.8,71.9,7
0.106000,886.0,107.5,1479.2,164.1,3316.3,146.7,867.3,1462.9,3289.4,171.1,71.5,7.8
0.108000,888.9,112.3,1476.3,196.8,3316.0,145.4,867.4,1462.1,3297.8,171.5,71,13.3
0.110000,891.5,124.4,1483.7,215.7,3317.2,148.0,870,1462.6,3308.3,171.9,70.4,19.7
0.112000,890.8,142.9,1491.3,218.2,3319.1,171.3,875.4,1464.7,3320.7,172.3,69.8,22
0.114000,884.1,165.4,1484.7,217.4,3327.2,226.9,883.4,1468.2,3334.7,172.7,69,15.2
0.116000,876.1,187.1,1463.7,224.7,3352.7,274.5,893.8,1473.1,3350.2,173.1,68.3,-6.4
0.118000,874.3,207.6,1440.2,236.3,3383.7,252.5,906.6,1479.4,3366.7,173.6,67.7,-46.6
0.120000,879.3,238.8,1423.8,252.0,3402.3,196.6,921.2,1487,3383.7,174,67,-96.6
0.122000,893.9,283.7,1426.0,276.9,3405.9,153.6,937.3,1495.7,3400.8,174.5,66.4,-146.6
0.124000,920.8,330.9,1451.9,319.2,3400.2,135.4,954.4,1505.4,3417.2,174.9,65.8,-186.8
0.126000,957.2,371.5,1495.0,391.4,3391.5,140.7,972,1515.7,3432.5,175.3,65.2,-208.4
0.128000,996.8,400.4,1539.0,503.4,3387.9,165.0,989.5,1526.6,3446,175.8,64.6,-215.2
0.130000,1038.1,409.5,1576.7,665.9,3393.8,195.0,1006.3,1537.8,3457.1,176.2,64.1,-212.9
0.132000,1069.8,406.3,1594.4,816.8,3402.5,204.6,1022,1548.9,3465.4,176.6,63.7,-206.5
0.134000,1088.6,454.0,1551.7,801.7,3406.1,188.2,1035.9,1559.9,3470.3,177.1,63.4,-200.9
0.136000,1067.8,564.3,1504.2,555.1,3408.6,163.5,1047.8,1570.5,3471.4,177.5,63.1,-200
0.138000,1025.6,571.5,1515.9,372.7,3413.5,145.8,1057.1,1580.4,3468.5,177.9,62.8,-200
0.140000,1005.0,544.2,1532.0,296.1,3419.6,136.2,1063.5,1589.5,3461.4,178.3,62.5,-200
0.142000,994.0,539.0,1549.3,280.8,3421.5,134.0,1067,1597.8,3450.1,178.7,62.2,-200
0.144000,995.3,548.9,1577.4,309.7,3413.7,138.2,1067.5,1605,3434.8,179.2,61.9,-200
0.146000,1010.1,543.1,1630.0,379.7,3401.4,144.8,1064.9,1611.1,3415.6,179.6,61.5,-200
0.148000,1028.7,519.0,1697.2,466.0,3398.0,158.3,1059.4,1616.1,3393,179.9,61.1,-200
0.150000,1058.7,501.9,1737.3,549.4,3408.4,189.0,1051.3,1620.1,3367.6,180.3,60.7,-200
0.152000,1086.6,477.9,1724.4,602.2,3429.4,233.4,1041,1623,3339.9,180.7,60.3,-200
0.154000,1079.4,444.6,1686.6,571.5,3451.1,273.2,1028.9,1624.9,3310.7,181.1,59.9,-200
0.156000,1055.2,411.0,1659.7,487.0,3461.8,305.4,1015.5,1626.1,3280.8,181.4,59.4,-200
0.158000,1045.7,400.7,1651.9,430.3,3451.0,344.0,1001.4,1626.5,3250.9,181.8,58.9,-200
0.160000,1057.3,435.1,1655.7,421.4,3416.3,385.9,987.1,1626.4,3222.1,182.1,58.3,-200
0.162000,1091.3,521.4,1665.3,455.1,3365.6,420.6,973.2,1625.9,3195,182.4,57.5,-200
0.164000,1148.1,653.9,1672.5,524.7,3304.6,464.9,960.4,1625.2,3170.6,0,56.7,-200
0.166000,1223.6,809.5,1669.1,634.4,3222.7,528.7,949.1,1624.3,3149.5,0,55.6,-200
0.168000,1355.4,1115.7,1578.1,761.9,3106.4,610.9,939.8,1623.5,3132.4,0,54.4,-200
0.170000,1130.8,2719.1,1517.6,519.1,2924.4,625.8,932.9,1622.9,3119.8,0,53.2,-200
0.172000,304.1,1220.5,1526.0,386.2,2802.4,449.0,928.6,1622.5,3112,0,51.9,-200
0.174000,332.9,1138.4,1528.4,337.1,2767.6,329.9,927.2,1622.3,3109.4,0,50.6,-200
