time,f1,b1,f2,b2,f3,b3,f1p,f2p,f3p,f0,intensity,harmonicity
0.026000,742.2,79.6,1789.7,80.7,3295.4,151.7,763.2,1747,3297.6,79.6,74,3.1
0.028000,750.3,74.7,1789.0,77.2,3297.4,112.3,764.7,1747.3,3298,79.5,73.8,3.3
0.030000,760.9,67.1,1786.3,80.2,3297.9,82.1,767.1,1747.6,3298.6,79.4,73.5,3.5
0.032000,771.6,62.9,1775.6,101.6,3298.7,67.4,770.3,1748,3299.4,79.4,73.1,3.7
0.034000,778.5,68.5,1750.0,144.6,3302.2,66.1,774.4,1748.3,3300.1,79.4,72.7,3.8
0.036000,782.0,79.0,1723.6,171.3,3309.1,70.7,779.1,1748.5,3300.9,79.4,72.4,3.7
0.038000,786.2,83.7,1716.9,160.6,3315.8,72.7,784.5,1748.4,3301.3,79.5,72,3.4
0.040000,793.4,82.4,1721.2,135.0,3320.1,71.7,790.3,1747.8,3301.5,79.7,71.6,3
0.042000,802.8,81.8,1726.7,113.7,3321.1,74.8,796.6,1746.8,3301.1,80,71.2,2.6
0.044000,812.7,86.9,1728.1,104.1,3316.0,90.1,803,1745,3300.1,80.4,70.9,2.3
0.046000,821.5,93.7,1727.1,104.7,3300.8,114.9,809.6,1742.6,3298.3,80.8,70.8,2.3
0.048000,828.6,96.4,1727.0,113.1,3282.7,130.4,816.2,1739.2,3295.7,81.3,70.8,2.4
0.050000,835.8,94.3,1728.0,125.7,3270.3,131.5,822.6,1735,3292.1,82,71,2.6
0.052000,840.8,87.3,1726.7,133.5,3265.6,124.4,828.8,1729.9,3287.6,82.7,71.3,2.8
0.054000,842.1,78.0,1719.8,133.0,3263.3,119.6,834.6,1723.9,3282,83.6,71.6,3
0.056000,841.7,68.9,1705.4,129.7,3257.6,126.1,840,1717,3275.4,0,72,3.1
0.058000,841.6,61.4,1689.3,125.4,3247.8,141.4,844.9,1709.3,3267.9,0,72.3,3
0.060000,842.0,53.7,1677.8,116.3,3238.0,148.3,849.3,1701,3259.6,0,72.5,2.9
0.062000,842.7,45.3,1672.4,102.9,3232.4,139.8,853,1692.1,3250.6,0,72.3,2.9
0.064000,843.1,37.1,1669.9,89.0,3230.0,125.0,856.2,1682.9,3241,0,72,3.1
0.066000,843.3,29.7,1668.1,77.5,3229.3,111.7,858.9,1673.6,3231.1,0,71.3,4
0.068000,844.5,28.7,1665.7,82.4,3229.3,114.2,861,1664.3,3221,0,70.7,5.5
0.070000,851.6,51.9,1659.2,141.8,3226.2,147.8,862.6,1655.3,3211,0,70.2,7.5
0.072000,864.5,83.5,1653.1,191.0,3216.7,160.3,863.7,1646.8,3201.2,0,70.2,9.3
0.074000,870.3,83.4,1651.7,176.0,3208.1,144.8,864.5,1638.9,3191.9,0,70.4,10.4
0.076000,871.4,71.8,1650.2,148.5,3202.2,126.0,864.9,1631.8,3183.2,0,70.7,10.2
0.078000,870.9,59.6,1648.1,124.7,3198.8,110.3,865.2,1625.7,3175.4,0,70.8,8.8
0.080000,869.3,48.1,1645.3,105.2,3197.0,98.7,865.3,1620.6,3168.5,0,70.5,6.5
0.082000,866.7,39.6,1641.4,97.8,3194.5,100.3,865.4,1616.7,3162.7,0,70.1,4.3
0.084000,863.5,44.5,1637.0,126.8,3177.0,136.4,865.6,1613.9,3158.1,0,69.7,2.8
0.086000,861.5,77.2,1630.8,210.8,3142.6,184.0,865.8,1612.3,3154.6,0,69.5,2.7
0.088000,865.2,95.1,1630.9,236.5,3129.1,175.4,866.3,1611.7,3152.4,0,69.7,4.1
0.090000,869.9,89.5,1633.7,213.5,3127.6,150.4,867,1612,3151.2,0,70.1,6.1
0.092000,873.0,77.7,1633.9,184.1,3130.1,129.9,868,1613.1,3151.1,0,70.3,8.2
0.094000,874.7,66.3,1631.8,159.8,3134.4,116.3,869.4,1614.8,3151.8,0,70.4,9.5
0.096000,875.8,59.3,1627.6,146.2,3141.8,111.8,871.1,1616.8,3153.3,0,70.4,9.4
0.098000,878.0,68.9,1620.6,166.5,3155.1,127.8,873.2,1618.9,3155.3,0,70.4,8
0.100000,883.2,93.0,1608.2,224.9,3172.0,162.5,875.6,1620.9,3157.6,0,70.6,5.8
0.102000,883.7,100.0,1592.7,261.5,3182.5,176.7,878.3,1622.6,3160,0,70.9,3.6
0.104000,883.8,92.0,1585.7,253.1,3182.9,166.6,881.2,1623.6,3162.3,0,71.1,1.9
0.106000,885.4,80.3,1585.6,224.3,3178.1,149.6,884.5,1623.8,3164.3,0,71.2,1.4
0.108000,886.9,72.3,1589.2,194.9,3172.7,135.4,887.8,1623.1,3165.9,0,71,1.7
0.110000,887.4,75.7,1597.5,171.3,3167.1,131.3,891.3,1621.3,3166.8,0,70.7,2.5
0.112000,887.4,95.0,1605.1,157.4,3161.3,154.9,894.7,1618.3,3167,0,70.3,3.5
0.114000,888.5,110.0,1605.6,151.0,3158.7,191.4,898.1,1614.1,3166.4,0,70.1,4.2
0.116000,893.0,108.8,1602.4,141.1,3147.0,209.2,901.4,1608.9,3165.1,0,70,4.5
0.118000,896.7,111.1,1595.3,148.2,3131.3,213.9,904.4,1602.7,3162.9,0,69.9,4.5
0.120000,897.8,132.0,1576.3,195.7,3121.7,213.6,907.2,1595.8,3160.1,0,69.9,4.3
0.122000,902.7,161.6,1547.6,259.4,3117.7,196.2,909.5,1588.3,3156.8,0,69.8,4.1
0.124000,911.4,176.5,1534.1,292.5,3121.5,170.5,911.5,1580.6,3153.1,0,69.6,3.8
0.126000,920.1,175.8,1541.1,293.7,3130.0,143.2,913,1573.1,3149.4,0,69.3,3.4
0.128000,927.3,178.7,1558.8,285.2,3139.5,117.3,913.9,1566.2,3145.8,0,69,2.6
0.130000,936.3,199.5,1584.6,274.0,3149.1,90.8,914.3,1560.3,3142.8,0,68.6,1.8
0.132000,933.2,208.8,1600.1,234.2,3154.9,69.7,914.2,1555.8,3140.6,0,68.3,1.1
0.134000,906.1,188.1,1591.5,183.9,3156.0,63.2,913.5,1553.2,3139.5,0,68.1,0.9
0.136000,891.4,164.7,1580.2,160.1,3157.5,77.1,912.3,1552.9,3139.8,0,67.9,1.4
0.138000,893.4,163.8,1583.6,163.2,3169.3,104.0,910.5,1555.4,3141.9,0,67.8,2.7
0.140000,899.7,181.4,1602.3,176.9,3193.5,118.2,908.3,1560.8,3146.1,171.4,67.6,4.5
0.142000,904.2,211.4,1630.1,191.9,3211.7,111.0,905.6,1569.5,3152.4,172.9,67.4,6.4
0.144000,906.4,241.3,1658.6,202.8,3218.9,100.6,902.4,1581.7,3161.2,174.4,67,7.9
0.146000,908.6,265.6,1681.5,209.1,3221.3,93.7,898.9,1597.5,3172.5,175.8,66.7,8.8
0.148000,910.4,296.7,1692.3,216.9,3222.9,92.5,895.1,1616.9,3186.4,177.1,66.3,9.1
0.150000,906.6,368.2,1692.4,237.7,3226.5,97.1,891.1,1639.7,3202.7,178.3,65.9,9.1
0.152000,884.6,511.9,1682.5,277.6,3232.9,104.9,886.9,1665.9,3221.4,179.5,65.4,9
0.154000,839.6,674.5,1672.7,328.8,3240.5,109.2,882.6,1695,3242.4,180.5,65,9.1
0.156000,839.6,656.4,1693.7,414.6,3250.3,105.8,878.3,1726.8,3265.2,181.5,64.6,9.6
0.158000,881.2,470.9,1757.8,499.7,3260.1,103.4,873.9,1760.6,3289.6,182.4,64.2,10.4
0.160000,904.1,344.1,1813.8,514.1,3267.8,113.2,869.7,1796,3315.1,183.2,63.8,11.3
0.162000,916.2,313.3,1827.1,487.5,3274.3,143.8,865.6,1832.2,3341.3,184,63.4,12.2
0.164000,921.1,340.5,1815.9,463.2,3284.0,202.9,861.6,1868.6,3367.8,184.6,63,12.9
0.166000,918.5,419.8,1793.8,454.5,3303.6,304.0,858,1904.5,3393.9,185.2,62.4,14.2
0.168000,907.1,549.9,1765.1,462.9,3333.3,414.9,854.5,1939.1,3419.1,185.8,61.7,20
0.170000,886.2,728.8,1727.8,479.9,3367.8,468.5,851.5,1971.7,3442.9,186.3,60.9,26.5
0.172000,863.3,940.7,1686.8,494.1,3400.0,446.1,848.7,2001.6,3464.7,186.7,60,28.6
0.174000,814.6,1258.8,1646.1,471.8,3428.1,419.2,846.4,2028.2,3484.1,187.1,59.1,21.4
0.176000,464.8,1950.2,1619.6,361.1,3452.6,441.4,844.4,2050.8,3500.6,187.4,58,-0.9
0.178000,146.9,845.2,1622.5,230.3,3463.2,553.1,842.9,2068.9,3513.9,187.7,56.9,-42.2
0.180000,115.0,757.3,1632.1,148.1,3419.2,786.7,841.7,2082.2,3523.6,187.9,55.7,-93.7
0.182000,1634.4,120.1,3300.6,1029.9,3825.1,151.5,841.1,2090.2,3529.6,188.1,54.5,-145.1
0.184000,1630.0,124.6,3177.0,1219.9,3828.2,118.5,840.8,2092.9,3531.6,188.3,53.2,-186.4
