time,f1,b1,f2,b2,f3,b3,f1p,f2p,f3p,f0,intensity,harmonicity
0.026000,825.7,93.0,1915.7,94.5,2897.8,308.9,840.4,1906,2830.1,177.8,76.9,5.2
0.028000,838.3,93.6,1912.5,91.6,2890.3,288.7,842.3,1903.3,2828.4,177.6,76.9,5.5
0.030000,847.9,92.0,1908.0,90.9,2874.7,270.9,845.4,1898.9,2825.7,177.4,77,6
0.032000,855.0,90.2,1901.3,92.8,2854.1,266.5,849.7,1893,2821.9,177.2,77,6.6
0.034000,861.1,90.1,1891.5,96.2,2827.1,275.1,854.9,1885.5,2817.1,177,77,7.4
0.036000,867.1,92.2,1879.6,99.8,2797.8,286.1,860.9,1876.7,2811.4,176.8,77,8.3
0.038000,874.2,95.3,1865.8,102.9,2770.5,289.0,867.7,1866.8,2804.8,176.6,77.1,9.6
0.040000,881.3,97.7,1851.2,105.6,2750.8,281.7,874.9,1855.9,2797.5,176.3,77.1,11.1
0.042000,888.1,98.2,1834.8,108.0,2735.8,268.2,882.5,1844.4,2789.6,176.1,77.1,12.5
0.044000,894.0,97.0,1817.1,108.3,2724.0,249.7,890.2,1832.4,2781.1,175.9,77.1,13.7
0.046000,898.9,95.8,1801.6,106.7,2717.7,230.5,897.8,1820.2,2772.3,175.6,77.1,14.3
0.048000,903.7,96.4,1789.1,105.6,2716.6,215.3,905.1,1808,2763.2,175.4,77.1,14.7
0.050000,908.2,98.9,1781.4,107.2,2719.3,211.8,912.1,1796,2754.1,175.2,77.1,14.8
0.052000,912.7,102.6,1776.1,111.4,2723.0,220.2,918.5,1784.5,2745,175,77.1,14.7
0.054000,917.3,106.3,1771.0,115.0,2725.8,234.7,924.3,1773.6,2736.3,174.7,77,14.5
0.056000,921.1,108.1,1765.4,115.1,2727.0,247.0,929.4,1763.4,2728,174.5,77,14.1
0.058000,925.0,108.6,1758.7,112.8,2727.8,256.4,933.7,1754.1,2720.3,174.3,76.9,13.3
0.060000,929.2,108.8,1752.3,111.2,2728.9,260.8,937.2,1745.7,2713.5,174.1,76.9,12.3
0.062000,933.9,110.0,1746.9,112.8,2730.7,256.9,940,1738.4,2707.6,173.9,76.8,11.3
0.064000,938.7,113.2,1742.0,118.5,2733.2,246.1,942,1732.1,2702.9,173.8,76.7,10.6
0.066000,942.5,116.9,1737.5,125.3,2734.4,237.5,943.4,1726.9,2699.5,173.6,76.6,10.4
0.068000,945.5,118.2,1733.4,129.7,2733.3,236.2,944.2,1722.7,2697.4,173.4,76.5,10.6
0.070000,947.4,116.3,1730.0,130.6,2729.9,242.9,944.6,1719.4,2696.9,173.3,76.4,11.1
0.072000,948.5,112.3,1727.6,129.1,2725.8,252.5,944.6,1716.9,2697.8,173.2,76.2,11.7
0.074000,949.2,108.5,1726.1,126.8,2723.7,260.9,944.5,1715.2,2700.4,173,76.1,12.5
0.076000,949.6,106.7,1724.0,125.5,2724.6,268.9,944.2,1714,2704.5,172.9,75.9,13.3
0.078000,949.8,106.9,1719.0,124.1,2725.9,275.2,944,1713.4,2710.3,172.9,75.7,14.5
0.080000,950.1,108.7,1711.5,120.4,2724.6,271.0,943.9,1713,2717.5,172.8,75.4,15.8
0.082000,950.9,112.2,1704.4,116.1,2722.8,259.9,944,1712.9,2726.1,172.7,75.2,17
0.084000,951.7,116.2,1700.0,115.0,2724.9,256.6,944.4,1712.7,2735.9,172.7,75,17.8
0.086000,951.4,119.0,1699.1,118.3,2732.7,267.7,945.1,1712.5,2747,172.7,74.9,18
0.088000,950.0,120.4,1700.1,123.5,2746.2,285.9,946.2,1712.1,2758.9,172.7,74.8,17.5
0.090000,948.8,120.6,1701.3,124.2,2760.6,291.4,947.6,1711.5,2771.7,172.7,74.7,16.5
0.092000,949.0,119.5,1701.7,117.5,2769.7,279.8,949.4,1710.4,2785,172.7,74.6,15.5
0.094000,950.7,117.4,1700.2,106.9,2773.4,268.8,951.4,1709,2798.6,172.7,74.4,14.7
0.096000,952.7,114.7,1697.4,98.2,2777.0,272.2,953.7,1707.1,2812.5,172.8,74.3,14.5
0.098000,954.7,112.1,1694.3,91.9,2785.2,286.2,956.1,1704.8,2826.2,172.8,74.1,14.7
0.100000,956.6,110.0,1692.3,87.6,2798.3,298.0,958.6,1702,2839.8,172.9,73.9,15.2
0.102000,958.1,107.8,1692.0,84.0,2812.5,303.3,961,1698.8,2853,173,73.6,15.7
0.104000,959.2,106.3,1693.5,81.2,2828.3,308.9,963.3,1695.2,2865.6,173.1,73.2,15.8
0.106000,959.4,106.4,1696.5,80.1,2855.5,315.9,965.4,1691.3,2877.6,173.2,72.8,15.4
0.108000,958.4,107.7,1700.7,80.2,2904.9,298.6,967.3,1687.3,2888.9,173.3,72.4,14.4
0.110000,956.7,108.4,1705.4,80.8,2948.5,248.5,968.8,1683.1,2899.5,173.4,71.9,13.1
0.112000,955.8,110.3,1709.7,84.5,2969.3,206.0,970,1678.8,2909.3,173.5,71.4,11.8
0.114000,958.1,117.1,1710.0,96.0,2974.5,194.3,970.7,1674.7,2918.3,173.6,70.8,10.8
0.116000,963.9,129.5,1702.1,115.3,2970.5,219.0,971.1,1670.7,2926.7,173.8,70.3,10.4
0.118000,970.1,145.4,1686.3,138.3,2960.5,272.9,971.1,1666.9,2934.5,173.9,69.9,10.6
0.120000,973.7,160.0,1669.6,155.3,2956.3,313.0,970.9,1663.5,2941.9,174,69.4,11.1
0.122000,975.3,170.6,1655.1,161.3,2964.6,310.7,970.3,1660.5,2949,174.2,69,11.7
0.124000,975.6,174.0,1641.6,155.3,2972.9,288.3,969.7,1657.9,2956,174.3,68.7,12.1
0.126000,974.4,170.5,1628.7,143.7,2973.8,265.1,968.9,1655.9,2963,174.5,68.3,12.2
0.128000,971.5,164.0,1614.9,133.6,2971.0,234.9,968.3,1654.5,2970.2,174.6,67.9,12
0.130000,968.8,159.1,1604.2,129.9,2970.3,197.6,967.8,1653.6,2977.8,174.8,67.5,11.7
0.132000,969.0,158.0,1601.5,137.3,2972.5,159.8,967.6,1653.3,2986,175,67,11.4
0.134000,975.5,159.7,1612.4,163.5,2973.9,131.1,967.7,1653.5,2994.8,175.1,66.5,11.1
0.136000,987.7,155.3,1639.5,204.0,2973.0,117.0,968.4,1654.4,3004.3,175.3,65.9,11.8
0.138000,1000.3,141.1,1680.1,238.5,2971.7,112.5,969.6,1655.7,3014.7,175.5,65.4,17.2
0.140000,1008.0,131.2,1713.7,255.0,2973.3,116.1,971.4,1657.5,3025.9,175.7,64.8,23.5
0.142000,1012.1,138.6,1730.1,278.7,2981.9,132.2,973.9,1659.7,3037.9,175.9,64.3,25.6
0.144000,1013.6,181.4,1721.2,324.4,3004.8,172.4,977.1,1662.3,3050.8,176.1,63.8,18.5
0.146000,1008.5,281.3,1684.9,347.4,3050.3,234.2,980.8,1665.1,3064.3,176.3,63.3,-3.5
0.148000,976.3,432.9,1648.9,293.6,3117.8,272.1,985.2,1668.2,3078.5,176.6,62.9,-44.3
0.150000,922.4,525.9,1642.4,228.4,3159.0,236.1,990,1671.4,3093,176.8,62.5,-95.1
0.152000,896.8,526.2,1651.9,199.1,3167.6,178.3,995.3,1674.7,3107.6,177.1,62.1,-145.9
0.154000,919.7,475.8,1667.9,190.2,3164.5,132.2,1000.8,1678,3122.3,177.3,61.8,-186.6
0.156000,963.4,414.6,1683.0,182.1,3158.2,102.8,1006.5,1681.1,3136.6,177.6,61.5,-208.5
0.158000,1002.2,359.9,1690.5,171.5,3151.7,85.4,1012.1,1684.2,3150.4,177.8,61.2,-215.4
0.160000,1022.5,330.1,1688.0,167.7,3149.3,80.1,1017.6,1687,3163.3,178.1,60.8,-213.1
0.162000,1030.4,321.8,1681.4,173.0,3153.4,84.5,1022.7,1689.6,3175.2,178.3,60.3,-206.6
0.164000,1034.1,325.7,1678.3,183.5,3165.8,95.8,1027.4,1691.8,3185.7,178.6,59.8,-200.9
0.166000,1036.8,334.7,1681.7,190.9,3184.1,107.1,1031.4,1693.7,3194.6,178.8,59.1,-200
0.168000,1040.5,351.8,1687.8,196.0,3202.2,116.5,1034.7,1695.3,3201.8,179,58.3,-200
0.170000,1049.3,375.9,1693.3,211.8,3211.5,129.6,1037.1,1696.4,3207,179.2,57.5,-200
0.172000,1067.5,399.4,1701.7,261.9,3212.0,153.2,1038.5,1697,3210.2,179.4,56.6,-200
0.174000,1102.5,431.7,1722.9,402.2,3206.7,196.7,1039,1697.3,3211.3,179.6,55.8,-200
