time,f1,b1,f2,b2,f3,b3,f1p,f2p,f3p,f0,intensity,harmonicity
0.025000,778.7,114.0,1742.1,242.7,2767.3,204.9,795.3,1741.7,2788.4,94.6,67.5,9.9
0.027000,780.1,114.9,1733.8,259.0,2777.5,218.9,796.6,1740.3,2788.8,94.6,67.5,10.2
0.029000,786.5,121.6,1726.9,281.1,2794.6,235.6,798.8,1738,2789.6,94.5,67.5,10.5
0.031000,798.2,130.9,1726.8,289.3,2817.9,242.6,801.6,1734.8,2790.7,94.5,67.5,10.9
0.033000,808.2,134.7,1729.9,278.1,2838.5,235.4,805.2,1730.9,2792.2,94.4,67.5,11.3
0.035000,813.4,133.1,1730.8,261.0,2852.8,221.9,809.4,1726.3,2794.1,94.4,67.4,11.8
0.037000,815.2,130.4,1727.8,246.9,2859.3,209.7,814,1721.1,2796.4,94.3,67.3,12.4
0.039000,817.5,130.9,1719.0,244.3,2851.7,209.6,819.1,1715.5,2799.3,94.3,67.2,13.2
0.041000,824.5,136.0,1703.6,251.9,2820.9,224.3,824.3,1709.6,2802.7,94.3,67.1,13.9
0.043000,834.7,139.4,1694.6,246.3,2789.5,226.0,829.7,1703.6,2806.8,94.2,67,14.6
0.045000,843.1,137.5,1694.7,226.2,2779.1,212.7,835.1,1697.6,2811.5,94.2,67,15.1
0.047000,847.0,132.9,1696.0,206.1,2778.5,199.5,840.4,1691.7,2817,94.1,66.9,15.2
0.049000,846.8,130.0,1692.2,199.0,2776.1,198.8,845.4,1686,2823.2,94.1,66.8,15.2
0.051000,847.7,131.9,1678.2,207.9,2767.3,223.6,850.2,1680.8,2830.1,94.1,66.7,15
0.053000,854.4,134.4,1663.6,210.3,2758.6,269.5,854.6,1676.1,2837.9,94.1,66.7,14.8
0.055000,863.3,132.3,1660.7,195.5,2760.5,317.0,858.6,1671.9,2846.4,94,66.6,14.7
0.057000,868.8,129.0,1665.7,179.0,2779.7,357.3,862.2,1668.5,2855.8,94,66.5,14.9
0.059000,869.3,129.1,1674.2,171.8,2823.1,379.7,865.5,1665.8,2865.9,94,66.4,15.2
0.061000,868.3,131.8,1686.3,168.5,2890.3,352.3,868.3,1663.8,2876.8,94,66.2,15.5
0.063000,871.2,130.4,1696.9,154.7,2935.0,286.6,870.9,1662.6,2888.3,94,66,15.5
0.065000,877.4,124.8,1701.7,132.6,2953.3,231.5,873.4,1662.2,2900.4,94,65.9,15
0.067000,882.7,119.7,1702.0,116.0,2959.7,191.6,875.7,1662.5,2913.1,94,65.6,13.7
0.069000,886.3,118.0,1699.6,108.4,2962.8,155.1,878.1,1663.5,2926.3,94,65.4,11.7
0.071000,889.3,122.9,1691.4,113.0,2964.2,124.3,880.8,1665.1,2939.7,93.9,65.1,9.5
0.073000,894.2,132.7,1671.4,127.5,2962.7,109.3,883.7,1667.1,2953.5,94,64.7,7.7
0.075000,900.9,141.3,1644.6,137.1,2959.5,110.6,887.2,1669.6,2967.4,94,64.3,6.6
0.077000,907.9,144.9,1629.4,135.8,2959.9,122.3,891.4,1672.3,2981.3,94,63.9,6.7
0.079000,913.9,147.6,1627.7,136.6,2970.5,125.3,896.5,1675.2,2995.2,94,63.5,7.6
0.081000,919.9,156.3,1630.5,152.2,2992.9,114.9,902.5,1678,3008.8,94,63,8.7
0.083000,925.2,172.6,1632.4,194.9,3022.1,109.9,909.6,1680.8,3022.2,94,62.5,9.7
0.085000,928.2,188.8,1631.2,268.8,3057.8,121.1,917.8,1683.3,3035.3,94,62,10.1
0.087000,928.4,196.4,1631.1,348.3,3098.7,148.8,927.4,1685.5,3047.9,94,61.6,9.8
0.089000,929.0,198.8,1640.9,399.5,3131.3,185.3,938.2,1687.3,3060,94.1,61.2,8.9
0.091000,935.8,207.6,1664.5,449.7,3143.3,228.9,950.4,1688.4,3071.6,94.1,60.8,7.8
0.093000,953.1,220.0,1700.2,509.4,3129.9,260.1,963.8,1689,3082.6,94.1,60.4,6.8
0.095000,973.0,214.8,1742.2,528.7,3109.4,255.1,978.4,1688.9,3093,94.2,60.1,6
0.097000,980.6,199.4,1764.0,474.8,3102.7,226.8,994,1688.1,3102.8,94.2,59.9,5.5
0.099000,983.3,198.4,1762.9,402.1,3107.5,210.5,1010.6,1686.6,3112.1,94.2,59.8,5.1
0.101000,986.9,220.7,1747.9,341.2,3113.7,217.4,1028,1684.3,3120.8,94.3,59.6,4.9
0.103000,991.9,267.4,1730.7,302.9,3114.2,237.8,1045.9,1681.5,3129.1,94.3,59.5,4.7
0.105000,999.4,350.8,1713.3,283.6,3108.7,262.0,1064,1678,3137,94.4,59.3,4.6
0.107000,1007.0,466.4,1693.6,277.4,3103.3,284.0,1082.3,1673.9,3144.6,94.5,59.1,4.6
0.109000,1013.4,615.2,1670.2,272.1,3104.1,299.7,1100.3,1669.4,3151.9,94.6,58.9,4.7
0.111000,1013.1,830.8,1644.8,252.7,3111.4,296.0,1117.8,1664.6,3159.2,94.6,58.7,4.9
0.113000,1002.2,1111.5,1627.4,211.0,3118.8,269.1,1134.5,1659.6,3166.4,94.7,58.5,5
0.115000,1060.8,1313.1,1622.3,172.4,3126.5,234.4,1150.1,1654.4,3173.8,94.8,58.3,5.1
0.117000,1205.5,1251.3,1620.5,166.6,3137.7,217.3,1164.4,1649.3,3181.3,94.9,58,5.2
0.119000,1325.0,1104.5,1614.3,194.8,3149.3,231.8,1177.1,1644.4,3189.2,95,57.7,5.2
0.121000,1427.0,1002.0,1598.7,239.9,3163.6,266.7,1188.1,1639.8,3197.5,95.1,57.3,5.2
0.123000,1507.8,947.2,1580.0,268.0,3189.8,284.9,1197.1,1635.5,3206.2,95.2,56.9,5.1
0.125000,1512.8,908.3,1586.1,267.7,3229.5,259.1,1204,1631.9,3215.5,95.4,56.5,4.9
0.127000,1390.0,883.2,1626.2,224.2,3263.1,211.1,1208.7,1628.8,3225.4,95.5,56.1,7.7
0.129000,1228.2,781.8,1654.7,157.0,3284.7,173.3,1211.2,1626.5,3235.9,95.6,55.6,13.6
0.131000,1137.9,603.2,1663.3,115.6,3294.0,161.8,1211.4,1624.9,3247.1,95.7,55.1,17.8
0.133000,1119.3,491.9,1660.3,103.1,3289.9,176.3,1209.5,1624.2,3258.9,95.8,54.6,15.6
0.135000,1124.6,443.3,1651.7,105.6,3281.8,199.3,1205.5,1624.3,3271.4,96,54.1,2.3
0.137000,1131.8,418.1,1642.8,112.2,3288.5,204.2,1199.6,1625.4,3284.4,96.1,53.4,-28.6
0.139000,1128.2,378.1,1636.3,118.5,3314.3,183.4,1192,1627.2,3298,0,52.8,-74
0.141000,1112.6,309.3,1631.8,126.9,3344.6,151.7,1182.8,1629.9,3312.1,0,52,-124.1
0.143000,1099.2,243.5,1628.0,142.4,3366.0,129.0,1172.4,1633.3,3326.4,0,51,-169.3
0.145000,1090.6,205.6,1624.8,165.0,3381.0,119.1,1161.1,1637.4,3341.1,0,50.1,-200
0.147000,1078.7,200.3,1625.8,178.6,3394.4,125.3,1149.2,1642.2,3355.9,0,48.8,-212.9
0.149000,1056.5,218.3,1636.4,165.6,3408.0,149.5,1136.9,1647.4,3370.6,0,47.7,-214.6
0.151000,1023.3,240.1,1656.2,138.3,3419.2,181.4,1124.8,1653,3385.3,0,46.5,-209.7
0.153000,999.9,245.1,1676.8,119.4,3416.6,198.1,1112.9,1658.9,3399.7,0,45.4,-203.2
0.155000,1005.1,240.9,1691.7,118.6,3397.0,205.7,1101.8,1664.9,3413.7,0,44.7,-200
0.157000,1033.7,243.8,1697.3,135.3,3370.1,217.5,1091.6,1670.9,3427.3,0,43.9,-200
0.159000,1069.1,268.2,1696.4,166.3,3349.9,234.5,1082.6,1676.9,3440.2,0,43.4,-200
0.161000,1105.4,341.2,1691.9,213.9,3355.9,256.7,1075.2,1682.7,3452.4,0,43,-200
0.163000,1145.2,483.3,1680.1,265.5,3397.6,276.9,1069.4,1688.1,3463.8,0,42.8,-200
0.165000,1190.1,708.9,1656.3,289.0,3461.2,266.6,1065.3,1693.2,3474.2,0,42.4,-200
0.167000,1198.6,882.4,1643.4,269.4,3504.3,224.9,1063.2,1697.8,3483.8,0,42.1,-200
0.169000,1158.2,850.8,1650.1,253.1,3520.8,190.9,1063,1701.9,3492.4,0,41.9,-200
0.171000,1119.1,686.6,1669.4,253.2,3522.8,181.9,1064.7,1705.4,3499.9,0,41.3,-200
0.173000,1101.5,531.8,1696.3,240.5,3519.7,201.1,1068.2,1708.3,3506.5,0,40.9,-200
0.175000,1099.3,435.9,1713.7,195.5,3520.2,249.8,1073.5,1710.7,3512.1,0,40.4,-200
0.177000,1111.0,403.4,1714.3,160.0,3532.8,295.0,1080.3,1712.4,3516.7,0,40,-200
0.179000,1125.8,389.3,1711.1,150.1,3541.1,297.4,1088.5,1713.6,3520.4,0,39.7,-200
0.181000,1134.6,360.0,1714.1,170.8,3528.7,293.2,1097.9,1714.3,3523.4,0,39.5,-200
0.183000,1138.1,314.5,1731.5,224.9,3511.3,301.1,1108,1714.6,3525.5,0,39.4,-200
0.185000,1140.9,266.6,1767.4,291.6,3501.7,298.1,1118.7,1714.4,3527.1,0,39.3,-200
0.187000,1142.5,239.5,1794.0,301.1,3500.1,277.4,1129.6,1713.9,3528,0,39.1,-200
0.189000,1142.6,236.6,1789.0,257.3,3504.6,256.6,1140.4,1713.2,3528.6,0,38.8,-200
0.191000,1139.1,253.7,1765.7,211.2,3516.2,249.2,1150.9,1712.4,3528.7,0,38.4,-200
0.193000,1130.9,292.4,1740.7,192.6,3530.3,266.0,1160.6,1711.4,3528.6,0,37.8,-200
0.195000,1123.5,366.4,1713.8,206.3,3543.3,308.4,1169.4,1710.5,3528.4,0,37.1,-200
0.197000,1132.2,462.6,1682.1,250.2,3552.0,359.1,1177,1709.6,3528.1,0,36.4,-200
0.199000,1161.5,508.9,1649.8,307.3,3553.1,398.5,1183.1,1708.8,3527.7,0,35.7,-200
0.201000,1173.5,428.3,1647.7,336.9,3541.9,391.9,1187.6,1708.3,3527.5,0,35.2,-200
0.203000,1156.2,334.2,1670.8,314.9,3531.3,328.4,1190.3,1707.9,3527.3,0,34.9,-200
0.205000,1130.9,294.3,1689.2,274.6,3528.0,258.3,1191.2,1707.8,3527.2,0,34.8,-200
