time,f1,b1,f2,b2,f3,b3,f1p,f2p,f3p,f0,intensity,harmonicity
0.025000,809.6,98.7,1754.0,115.0,2822.0,438.5,842,1735.1,2815.2,91.3,73.3,5.9
0.027000,814.2,103.3,1745.1,113.2,2811.9,472.5,841.6,1732.1,2814.1,91.2,73.2,6.5
0.029000,823.8,120.4,1722.6,131.9,2780.1,565.9,841.1,1727.2,2812.4,91.1,73.2,7.5
0.031000,831.7,125.0,1705.6,141.2,2769.2,617.4,840.4,1720.5,2810.2,91,73.2,8.6
0.033000,837.0,116.2,1701.8,131.4,2791.0,597.5,839.7,1712.3,2807.7,91,73.1,9.7
0.035000,841.3,107.1,1703.7,116.6,2820.6,545.3,839.2,1702.8,2805.2,90.9,73.1,10.4
0.037000,846.2,105.6,1703.4,107.3,2841.7,496.1,838.8,1692.3,2802.9,90.8,72.9,10.8
0.039000,853.2,114.8,1690.5,111.2,2841.2,475.7,838.9,1681.1,2801.1,90.7,72.8,10.9
0.041000,857.7,120.8,1664.3,122.0,2823.4,463.4,839.4,1669.5,2800,90.6,72.7,10.9
0.043000,858.3,114.3,1643.9,123.0,2816.0,417.4,840.6,1657.8,2799.9,90.5,72.6,10.9
0.045000,859.1,102.9,1636.8,114.7,2815.0,353.6,842.5,1646.4,2801.1,90.4,72.5,11.2
0.047000,861.4,95.4,1634.9,107.1,2813.3,296.5,845.1,1635.5,2803.6,90.4,72.4,11.9
0.049000,866.1,96.7,1630.3,108.9,2809.5,267.0,848.6,1625.4,2807.7,90.3,72.2,12.8
0.051000,872.5,102.0,1615.4,121.9,2801.5,288.2,852.8,1616.4,2813.4,90.2,72.1,13.7
0.053000,876.2,99.4,1597.7,131.3,2795.4,353.2,857.9,1608.5,2820.7,90.2,72.1,14.5
0.055000,878.0,90.2,1592.9,125.3,2802.6,381.7,863.7,1601.9,2829.5,90.1,72,15
0.057000,879.6,81.7,1595.1,114.5,2816.4,343.5,870,1596.8,2839.6,90.1,71.9,15.2
0.059000,881.3,80.1,1598.1,110.4,2832.0,286.9,876.9,1593.1,2851,90.1,71.8,15.2
0.061000,882.4,88.9,1597.1,120.5,2850.0,258.2,884.1,1590.7,2863.3,90.1,71.7,15.1
0.063000,883.5,100.5,1590.7,139.5,2872.6,270.2,891.4,1589.8,2876.3,90.1,71.6,14.8
0.065000,885.8,99.5,1587.8,143.1,2894.3,289.2,898.7,1590,2889.6,90.2,71.5,14.3
0.067000,888.3,91.2,1590.5,131.5,2907.9,275.6,905.8,1591.4,2902.9,90.3,71.3,13.6
0.069000,890.3,84.0,1595.8,115.6,2914.7,236.9,912.6,1593.6,2915.9,90.4,71.1,12.6
0.071000,892.0,83.9,1601.9,102.7,2918.9,205.2,918.8,1596.7,2928.3,90.6,70.7,11.5
0.073000,896.2,97.1,1606.9,98.7,2921.8,212.7,924.4,1600.3,2939.8,90.9,70.3,10.6
0.075000,907.4,122.4,1612.2,110.0,2936.9,279.2,929.2,1604.3,2950.2,91.2,70,10.1
0.077000,921.3,147.4,1624.1,125.0,2979.6,317.3,933.4,1608.5,2959.3,91.6,69.7,10.2
0.079000,930.8,152.3,1633.5,122.8,3005.8,326.0,936.7,1612.8,2967,92.1,69.4,10.6
0.081000,933.8,136.9,1631.6,110.4,3019.9,407.6,939.4,1617.1,2973.2,92.7,69.1,11.2
0.083000,934.2,132.6,1624.5,102.7,3013.1,569.5,941.4,1621.2,2978.1,93.4,68.8,11.8
0.085000,935.3,150.0,1612.3,114.3,3012.1,728.2,942.9,1625.2,2981.8,94.2,68.6,11.9
0.087000,942.5,156.3,1600.6,134.4,3028.0,824.1,944.1,1628.8,2984.3,95.2,68.3,11.5
0.089000,952.8,141.1,1598.4,143.4,3008.6,759.5,945.2,1632.3,2986.1,96.3,68,10.8
0.091000,962.5,124.8,1605.5,144.3,2978.8,638.4,946.4,1635.5,2987.3,97.5,67.6,10
0.093000,972.0,118.6,1623.0,146.3,2962.2,541.2,947.9,1638.5,2988.4,98.9,67.2,9.3
0.095000,978.4,132.3,1647.3,144.9,2952.1,496.1,949.8,1641.4,2989.8,100.5,66.8,8.7
0.097000,977.8,170.4,1659.9,130.8,2934.2,486.1,952.5,1644.3,2991.7,102.2,66.4,8.5
0.099000,976.4,204.9,1659.5,115.0,2917.4,468.5,956.1,1647.2,2994.5,104.1,66.1,8.5
0.101000,982.3,213.8,1658.8,106.9,2925.1,420.6,960.7,1650.1,2998.7,106.2,65.8,8.5
0.103000,994.1,209.9,1661.8,107.9,2960.9,347.5,966.4,1653.3,3004.5,108.4,65.6,8.5
0.105000,1003.1,200.6,1667.8,121.2,3006.4,279.4,973.3,1656.7,3012.1,110.8,65.3,8.5
0.107000,999.9,186.9,1672.5,147.3,3044.4,245.5,981.3,1660.3,3021.7,113.3,65.2,8.3
0.109000,990.6,173.6,1672.7,169.5,3070.1,252.8,990.4,1664.2,3033.5,116,65,8
0.111000,987.5,166.3,1672.8,169.3,3088.1,275.6,1000.5,1668.3,3047.5,118.8,64.9,7.8
0.113000,991.8,165.3,1674.0,155.7,3106.3,260.5,1011.3,1672.6,3063.6,121.7,64.8,7.5
0.115000,1000.9,172.7,1673.4,144.5,3120.6,199.1,1022.7,1677,3081.7,124.7,64.6,7.3
0.117000,1012.7,189.2,1670.5,146.9,3130.0,150.0,1034.4,1681.5,3101.7,127.7,64.3,7
0.119000,1025.5,209.2,1667.5,164.9,3141.2,131.9,1046.1,1685.9,3123.1,130.8,64,6.7
0.121000,1034.8,227.8,1668.8,186.9,3159.3,136.9,1057.5,1690,3145.8,0,63.7,6.4
0.123000,1035.9,245.1,1678.9,187.9,3186.9,157.2,1068.3,1693.9,3169.3,136.9,63.3,6.3
0.125000,1028.9,259.4,1696.5,159.0,3214.9,186.6,1078.2,1697.2,3193.3,139.9,63,6.5
0.127000,1027.8,272.7,1713.3,134.9,3230.0,228.6,1086.8,1700,3217.3,142.9,62.6,10.6
0.129000,1044.5,286.6,1724.9,137.2,3233.1,289.3,1094.1,1702.1,3241,145.8,62.2,18.5
0.131000,1071.5,299.6,1731.2,163.5,3237.3,361.1,1099.7,1703.4,3264.1,148.6,61.6,24.8
0.133000,1099.7,314.8,1730.9,207.5,3249.2,438.9,1103.5,1703.8,3286,151.3,61.1,24.3
0.135000,1123.0,338.2,1719.3,250.5,3264.7,484.7,1105.5,1703.3,3306.7,153.8,60.6,11.5
0.137000,1143.7,380.3,1695.3,277.5,3278.3,458.8,1105.6,1701.9,3325.8,156.2,60,-20.3
0.139000,1170.0,457.8,1666.7,301.4,3300.8,401.3,1103.9,1699.7,3343.1,158.5,59.5,-67.7
0.141000,1199.9,550.2,1646.5,333.3,3337.4,371.8,1100.6,1696.6,3358.6,160.6,58.9,-120.2
0.143000,1194.8,549.5,1657.8,345.9,3380.0,357.7,1095.8,1692.9,3372.2,162.5,58.1,-167.8
0.145000,1149.7,447.9,1687.7,302.7,3410.8,337.1,1089.8,1688.6,3383.9,164.3,57.5,-200
0.147000,1111.2,355.3,1699.3,239.8,3424.7,313.0,1082.9,1683.9,3393.7,166,56.9,-213.5
0.149000,1084.8,306.0,1696.1,193.0,3426.0,291.6,1075.4,1679,3401.8,167.5,56.1,-215.2
0.151000,1060.7,305.1,1687.3,170.6,3420.2,283.9,1067.7,1674.1,3408.4,168.9,55.6,-210.2
0.153000,1028.7,363.5,1678.5,170.7,3413.6,305.8,1060.1,1669.4,3413.6,170.1,55,-203.4
0.155000,990.6,471.5,1676.3,191.2,3418.9,367.9,1053,1664.9,3417.5,171.3,54.4,-200
0.157000,971.8,541.6,1680.2,230.8,3444.5,442.2,1046.7,1661.1,3420.5,172.3,53.7,-200
0.159000,992.9,521.4,1679.5,290.2,3462.6,469.8,1041.4,1657.9,3422.6,173.2,53.5,-200
0.161000,1025.5,476.9,1664.0,351.0,3435.1,453.7,1037.5,1655.5,3423.9,174.1,52.6,-200
0.163000,1048.9,457.7,1636.1,399.0,3396.2,409.6,1035.1,1654,3424.7,174.8,51.7,-200
0.165000,1052.0,470.6,1614.8,428.3,3380.4,362.8,1034.3,1653.5,3425,175.5,51.2,-200
