time,f1,b1,f2,b2,f3,b3,f1p,f2p,f3p,f0,intensity,harmonicity
0.026000,815.1,110.0,1717.8,221.3,2011.8,5411.3,824.5,1673.1,2025.8,186.4,72,18.3
0.028000,818.6,109.5,1711.5,231.5,1990.3,4714.8,824.8,1674,2056.6,186.2,72,18.8
0.030000,822.2,109.6,1707.5,235.8,1911.9,4685.6,825.3,1675.4,2105.9,186.1,72.1,19.1
0.032000,826.7,110.0,1509.6,6168.5,1706.1,227.4,826.1,1677,2170.4,185.9,72.1,19.3
0.034000,830.9,110.4,1704.3,210.8,2626.9,199.4,827.1,1678.6,2246.1,185.8,72.1,19.4
0.036000,834.0,111.1,1699.4,193.0,2622.2,199.1,828.5,1679.9,2328.4,185.6,72.1,19.3
0.038000,836.7,112.8,1691.3,175.4,2617.3,197.9,830.2,1680.5,2412.7,185.4,72.1,18.9
0.040000,839.0,114.9,1683.2,162.5,2614.4,199.0,832.4,1680.2,2494,185.2,72.1,18.4
0.042000,840.0,116.8,1676.7,156.7,2615.8,204.2,835,1678.7,2568.5,185,72,17.9
0.044000,839.5,118.5,1671.5,157.8,2623.2,214.2,838.2,1676,2632.5,184.8,71.9,17.4
0.046000,839.6,120.3,1666.9,158.0,2633.2,222.8,842.1,1672,2683.8,184.6,71.8,16.9
0.048000,843.9,122.4,1662.1,146.2,2641.0,223.0,846.6,1666.7,2721.2,184.4,71.6,16.4
0.050000,852.0,124.5,1657.0,127.1,2647.4,216.9,851.9,1660.3,2744.6,184.2,71.4,15.9
0.052000,861.0,127.3,1651.0,111.4,2658.3,211.4,858.1,1653,2755.1,184,71.1,15.4
0.054000,868.8,131.7,1644.1,102.0,2675.7,207.5,865,1645.2,2754.6,183.8,70.8,15.2
0.056000,875.0,137.5,1637.1,97.5,2695.4,202.1,872.8,1637.1,2745.8,183.6,70.5,15.3
0.058000,881.2,144.5,1630.4,94.3,2714.3,190.5,881.3,1629.2,2731.8,183.4,70.2,15.9
0.060000,887.0,153.2,1625.2,91.8,2728.0,173.4,890.4,1621.9,2715.8,183.1,69.9,16.8
0.062000,891.2,165.5,1621.3,91.0,2736.6,153.6,900,1615.3,2700.9,182.9,69.6,17.5
0.064000,895.2,179.6,1617.9,90.9,2737.2,135.2,910,1609.8,2689.6,182.7,69.3,17.7
0.066000,903.4,188.1,1614.5,88.6,2729.9,126.6,920.1,1605.5,2683.9,182.5,69,16.9
0.068000,918.1,192.2,1611.0,85.5,2721.8,129.5,930.1,1602.6,2684.9,182.3,68.7,15.1
0.070000,937.1,194.6,1608.0,83.3,2719.6,145.0,940,1600.8,2692.8,182.1,68.4,12.6
0.072000,957.9,194.8,1605.8,80.8,2723.7,171.1,949.5,1600.2,2707.1,181.8,68,10.2
0.074000,976.6,193.8,1604.4,78.2,2735.5,195.1,958.4,1600.5,2726.7,181.7,67.6,8.2
0.076000,990.3,191.1,1603.3,75.7,2753.0,199.5,966.8,1601.6,2749.9,181.5,67,7.2
0.078000,1000.7,181.5,1600.8,73.0,2773.4,193.7,974.6,1603,2774.6,181.3,66.2,6.9
0.080000,1004.0,169.4,1595.3,75.2,2798.3,199.8,981.9,1604.6,2798.8,181.1,65.4,7
0.082000,998.6,165.5,1586.6,90.4,2829.3,233.7,988.8,1606,2820.6,181,64.5,7.4
0.084000,988.5,174.8,1578.5,127.8,2849.9,290.9,995.5,1607.1,2838.5,180.8,63.7,8
0.086000,981.4,192.4,1578.1,182.2,2840.9,318.0,1002.2,1607.8,2851.6,180.7,63,8.7
0.088000,980.8,214.4,1584.8,241.8,2824.2,304.0,1009.3,1607.9,2859.7,180.6,62.4,9.7
0.090000,987.4,238.8,1592.5,297.6,2820.3,289.5,1017,1607.5,2862.9,180.5,62,11
0.092000,1000.9,260.1,1601.0,347.4,2826.1,287.7,1025.7,1606.6,2862.4,180.4,61.7,12.2
0.094000,1021.0,275.0,1611.9,390.4,2831.1,294.4,1035.5,1605.4,2859.5,180.3,61.5,13.1
0.096000,1045.9,283.7,1622.5,446.2,2830.1,307.9,1046.8,1604,2855.8,180.2,61.3,14.4
0.098000,1075.3,277.8,1636.5,541.0,2831.8,332.8,1059.6,1602.6,2853.4,180.2,61,20.1
0.100000,1098.2,249.3,1661.1,650.1,2846.5,367.9,1074,1601.5,2853.8,180.1,60.8,26.3
0.102000,1108.9,216.0,1691.1,715.9,2877.3,404.7,1089.7,1600.7,2858.5,180.1,60.4,28.1
0.104000,1114.2,203.3,1701.3,704.0,2921.5,434.3,1106.7,1600.3,2868.4,180.1,60,20.7
0.106000,1124.9,229.3,1680.3,663.6,2959.3,466.2,1124.5,1600.6,2883.8,180.1,59.5,-1.6
0.108000,1158.6,318.1,1631.7,687.1,2977.3,544.4,1142.8,1601.3,2904.5,180.1,58.8,-42.8
0.110000,1273.3,457.1,1502.2,910.9,2972.1,704.8,1160.9,1602.6,2929.4,180.1,58.2,-94.1
0.112000,1320.6,1806.5,1384.1,319.4,2943.8,927.6,1178.3,1604.2,2957.2,180.1,57.4,-145.3
0.114000,1032.8,2926.4,1400.4,250.1,2943.8,1042.3,1194.4,1606,2985.8,180.1,56.5,-186.4
0.116000,830.9,3476.0,1392.8,222.3,2997.3,947.6,1208.5,1607.8,3013.2,180.1,55.7,-208.6
0.118000,1206.2,3204.1,1376.4,220.1,3021.9,775.4,1220.2,1609.5,3037.3,180.1,54.8,-215.6
0.120000,1357.0,253.5,1636.3,2385.2,3034.0,684.5,1228.8,1610.8,3056,180.2,53.8,-213.3
0.122000,1328.0,310.4,1865.0,1650.9,3051.3,653.1,1234.2,1611.7,3067.9,180.2,52.9,-206.7
0.124000,1291.8,366.5,1982.1,1179.1,3062.8,639.7,1236,1611.9,3072,180.2,52.1,-201
