time,f1,b1,f2,b2,f3,b3,f1p,f2p,f3p,f0,intensity,harmonicity
0.026000,826.9,81.5,1730.3,290.8,2855.6,232.4,824.7,1730.9,2883.4,175.3,70.5,9.5
0.028000,827.7,81.9,1726.3,312.9,2894.1,244.7,825.7,1729.2,2887.2,175.3,70.4,10.2
0.030000,831.2,81.3,1731.0,326.2,2911.6,215.3,827.4,1726.6,2892.9,175.3,70.3,11.1
0.032000,834.3,80.3,1734.7,361.5,2917.3,184.1,829.8,1723,2900,175.2,70.1,12
0.034000,836.4,80.6,1729.4,434.9,2917.2,172.2,832.9,1718.7,2907.4,175.2,69.9,12.9
0.036000,837.8,83.0,1710.7,514.4,2913.0,177.7,836.5,1713.8,2914.3,175.2,69.8,13.8
0.038000,839.0,86.2,1689.3,512.5,2908.9,190.5,840.6,1708.6,2919.6,175.2,69.7,14.8
0.040000,841.3,87.7,1685.5,411.2,2908.5,206.4,845.1,1703.2,2922.8,175.2,69.5,15.9
0.042000,845.2,88.0,1691.3,302.5,2909.3,226.7,849.7,1697.8,2923.1,175.3,69.4,16.8
0.044000,849.0,88.5,1695.1,238.4,2909.9,242.7,854.2,1692.6,2920.4,175.3,69.2,17.4
0.046000,851.1,89.3,1695.4,212.6,2911.0,234.3,858.3,1687.6,2914.8,175.4,69.1,17.5
0.048000,852.3,90.4,1692.6,209.1,2910.7,204.8,861.6,1682.9,2906.7,175.5,68.8,17.1
0.050000,854.0,91.3,1687.0,212.6,2907.3,174.9,863.9,1678.5,2896.9,175.6,68.6,16.5
0.052000,857.2,90.7,1679.1,208.2,2901.1,156.2,864.8,1674.3,2886.5,175.7,68.3,15.6
0.054000,860.9,88.2,1669.7,192.4,2892.4,151.2,864,1670.2,2876.6,175.9,68,14.6
0.056000,863.2,86.4,1662.0,178.1,2882.2,160.1,861.1,1665.9,2868.5,176,67.7,13.4
0.058000,863.2,89.2,1658.4,180.7,2873.5,180.0,856,1661.4,2863.2,176.2,67.3,11.8
0.060000,861.6,98.1,1656.8,203.1,2866.2,204.9,848.5,1656.3,2861.6,176.4,66.9,10
0.062000,858.5,112.9,1652.5,231.7,2857.7,230.9,838.8,1650.4,2864.3,176.6,66.4,8.3
0.064000,852.0,134.6,1643.7,242.3,2850.0,256.5,827,1643.6,2871.6,176.8,65.7,7
0.066000,837.9,165.1,1632.9,226.5,2848.7,285.4,813.3,1635.6,2883.3,177,65,6.5
0.068000,812.7,206.2,1623.6,202.0,2862.3,324.0,798.1,1626.3,2898.7,177.2,64.2,6.6
0.070000,777.1,257.0,1616.4,188.8,2901.2,362.2,781.9,1615.6,2916.8,177.5,63.4,7.1
0.072000,739.5,307.9,1608.1,200.4,2956.2,360.0,765.3,1603.6,2936.4,177.7,62.6,7.9
0.074000,713.3,357.4,1593.5,249.7,2990.3,308.5,748.8,1590.5,2956,177.9,61.9,8.5
0.076000,700.5,422.3,1569.4,333.9,2997.4,255.5,733.3,1576.3,2974,178.1,61.4,9
0.078000,691.7,495.9,1540.8,394.9,2998.7,224.1,719.2,1561.5,2989,178.3,61.1,9.5
0.080000,689.7,558.6,1525.3,401.8,3004.0,209.3,707.1,1546.4,2999.9,178.4,60.9,10.1
0.082000,702.4,604.9,1522.7,400.4,3010.5,212.2,697.4,1531.5,3005.7,178.6,60.8,10.5
0.084000,716.2,623.0,1523.6,401.7,3012.1,236.0,690.6,1517.2,3005.9,178.7,60.7,10.9
0.086000,717.3,616.3,1526.7,387.9,3003.6,268.9,686.9,1504.1,3000.6,178.8,60.5,11
0.088000,708.8,606.7,1531.9,354.6,2985.3,282.3,686.3,1492.6,2990.3,178.9,60.3,10.9
0.090000,701.5,615.6,1531.0,325.3,2964.6,265.0,688.7,1483.2,2975.8,179,60,10.8
0.092000,698.8,644.2,1513.8,322.8,2943.8,237.4,693.9,1476.4,2958.4,179.1,59.5,10.5
0.094000,696.2,664.5,1477.0,341.3,2922.9,215.3,701.7,1472.4,2939.7,179.1,59,9.9
0.096000,696.5,627.6,1431.6,354.5,2904.6,197.8,711.5,1471.4,2921.2,179.1,58.3,10.1
0.098000,709.0,511.8,1401.1,350.3,2892.6,179.6,723,1473.4,2904.6,179.1,57.6,14.3
0.100000,733.9,381.2,1401.0,342.1,2892.1,170.5,735.7,1478.5,2891.2,179,56.8,19.1
0.102000,763.6,291.9,1439.0,326.8,2899.1,196.1,748.9,1486.3,2882,179,55.9,19.9
0.104000,791.1,254.9,1498.1,291.0,2902.1,270.2,762.2,1496.5,2877.9,178.9,55.1,12
0.106000,808.8,264.5,1544.5,253.0,2891.1,381.4,775.3,1508.7,2878.9,178.8,54.2,-9.9
0.108000,803.8,301.5,1571.4,223.9,2873.7,486.4,787.6,1522.2,2884.8,178.7,53.4,-49.6
0.110000,772.9,335.7,1588.4,196.9,2876.8,532.7,798.9,1536.3,2894.8,0,52.7,-98.7
0.112000,738.8,347.4,1599.7,174.9,2908.6,509.5,809,1550.5,2907.9,0,51.9,-147.7
0.114000,734.8,346.1,1600.5,170.9,2947.5,452.8,817.7,1564,2922.7,0,51.1,-187
0.116000,775.9,335.0,1588.7,195.2,2973.2,404.0,824.9,1576.1,2937.6,0,50.6,-208.2
0.118000,832.8,302.6,1573.9,245.3,2980.0,374.4,830.5,1586.2,2951.1,0,50.3,-214.9
0.120000,869.2,266.1,1563.5,313.1,2968.1,363.7,834.5,1593.8,2961.8,0,49.5,-212.7
0.122000,886.0,242.6,1560.0,398.1,2944.0,369.3,836.9,1598.5,2968.8,0,49,-206.4
0.124000,893.7,234.5,1572.0,503.0,2916.1,387.8,837.7,1600.1,2971.1,0,48.4,-200.9
