time,f1,b1,f2,b2,f3,b3,f1p,f2p,f3p,f0,intensity,harmonicity
0.026000,774.5,83.8,1817.1,164.3,2822.8,151.7,816.4,1807.8,2808.6,185.3,69.9,18.4
0.028000,781.7,83.5,1811.3,169.5,2811.8,164.3,812.8,1807.3,2803.4,185.1,69.8,18.4
0.030000,788.5,84.5,1806.3,174.8,2798.9,178.6,807.4,1806.3,2795.4,185,69.8,17.9
0.032000,795.1,86.4,1802.6,181.8,2786.8,197.6,801,1804.8,2785.8,184.8,69.6,17.1
0.034000,801.9,87.8,1800.5,189.2,2777.6,221.9,794.5,1802.4,2775.9,184.6,69.5,16.4
0.036000,808.8,87.1,1798.4,191.3,2770.4,241.5,788.8,1799,2767.1,184.5,69.4,15.9
0.038000,814.9,85.4,1793.2,190.8,2765.5,252.7,785.1,1794.3,2760.9,184.3,69.2,15.5
0.040000,818.6,84.7,1783.4,190.4,2763.6,257.9,784,1788.3,2758.6,184.1,69.1,15
0.042000,820.7,84.6,1771.3,187.3,2762.4,262.1,786.2,1780.8,2761.1,183.9,68.9,14.7
0.044000,822.1,84.4,1761.5,179.4,2761.8,272.7,791.8,1771.8,2769.2,183.7,68.7,14.4
0.046000,823.4,84.2,1756.5,170.2,2760.1,297.5,800.7,1761.4,2782.9,183.5,68.4,14.4
0.048000,825.2,85.2,1752.0,164.7,2756.3,343.5,812.3,1749.7,2801.9,183.3,68.2,14.5
0.050000,827.1,88.7,1744.0,167.8,2761.4,402.9,825.7,1736.9,2825.4,183.1,67.9,14.8
0.052000,829.2,94.9,1731.3,177.4,2797.8,457.4,839.9,1723.5,2852.2,183,67.6,15.2
0.054000,831.6,102.6,1715.8,187.0,2875.7,486.6,853.7,1709.7,2881,182.8,67.3,15.6
0.056000,835.0,107.9,1701.5,185.6,2957.5,482.2,865.7,1696,2909.9,182.6,67.1,16
0.058000,841.1,108.6,1687.9,168.2,3011.3,472.2,875.1,1682.7,2937.5,182.4,66.8,16.7
0.060000,848.2,105.4,1675.7,148.7,3035.0,455.8,880.9,1670.2,2962.3,182.3,66.6,17.4
0.062000,854.9,100.8,1663.1,138.0,3039.9,414.7,882.7,1658.8,2983.2,182.1,66.3,18
0.064000,860.2,97.6,1647.7,138.3,3032.0,358.9,880.5,1648.7,2999.2,182,66,18.4
0.066000,863.5,98.2,1631.4,143.7,3020.8,317.9,874.7,1640,3010.1,181.8,65.7,18.3
0.068000,864.9,103.0,1618.4,143.5,3009.8,302.6,866.2,1632.7,3016,181.7,65.4,17.7
0.070000,864.3,111.0,1614.2,135.7,2998.2,316.7,856.2,1626.8,3017.5,181.6,65,16.8
0.072000,862.9,122.2,1616.6,129.2,2980.6,355.7,846,1621.9,3015.4,181.5,64.6,15.9
0.074000,861.9,138.1,1621.4,132.7,2954.9,414.6,837.2,1618.1,3010.9,181.4,64.2,15.2
0.076000,862.2,159.1,1623.7,148.3,2935.1,480.9,831.2,1614.9,3005.4,181.3,63.7,14.9
0.078000,864.4,185.0,1619.3,168.4,2938.9,532.2,829,1612.1,3000.2,181.2,63.4,14.9
0.080000,868.8,206.7,1609.5,172.8,2966.3,519.4,831.6,1609.4,2996.2,181.2,63.1,15
0.082000,876.0,217.2,1602.1,156.1,2996.6,444.8,839.1,1606.7,2994.4,181.1,62.8,15.2
0.084000,885.5,218.0,1601.4,132.2,3016.3,358.8,851.3,1603.9,2995.2,181.1,62.7,15.3
0.086000,892.5,219.1,1603.3,116.1,3028.0,304.5,867.3,1600.8,2998.5,181.1,62.5,15.1
0.088000,892.6,226.2,1604.4,107.7,3039.8,273.7,885.6,1597.5,3004,181.1,62.3,14.8
0.090000,883.8,238.8,1603.1,103.8,3049.9,251.1,904.3,1594.2,3010.7,181.1,62.1,14.5
0.092000,866.8,258.3,1599.0,102.2,3055.2,226.2,921.3,1590.9,3017.4,181.2,61.8,14.1
0.094000,846.8,286.4,1591.7,105.1,3056.4,203.7,934.3,1587.9,3022.8,181.3,61.5,13.7
0.096000,838.3,314.7,1583.4,115.5,3055.5,194.4,941.2,1585.4,3025.3,181.3,61.1,13.6
0.098000,849.3,335.8,1576.7,137.8,3053.2,200.1,940,1583.7,3023.7,181.5,60.8,13.5
0.100000,871.1,344.0,1573.9,176.3,3047.5,221.6,929.3,1583,3016.9,181.6,60.4,13.6
0.102000,891.5,347.4,1574.4,248.1,3032.0,272.0,908.5,1583.4,3004.1,181.7,60.1,13.6
0.104000,906.7,361.8,1576.3,404.2,2988.2,394.2,877.6,1584.9,2985.1,181.9,59.8,13.5
0.106000,919.9,401.2,1573.0,710.3,2882.3,602.3,837.5,1587.5,2960.3,182.1,59.5,13.1
0.108000,921.8,470.3,1561.7,1100.0,2732.2,751.8,789.8,1591,2930.5,182.3,59.2,12.5
0.110000,871.2,563.2,1598.2,1000.9,2728.1,763.3,736.8,1595.3,2897.2,182.5,58.8,11.7
0.112000,781.4,644.6,1631.6,697.8,2813.8,695.9,681.4,1600.1,2862.1,182.7,58.4,11
0.114000,686.6,703.0,1640.1,510.8,2891.2,627.6,627,1605,2827.3,182.9,57.9,10.5
0.116000,614.5,733.6,1644.7,430.1,2947.6,612.0,576.7,1609.6,2794.9,183.1,57.4,11.3
0.118000,542.1,753.7,1651.3,415.3,2977.1,668.2,533.7,1613.6,2767.2,183.4,56.7,17.4
0.120000,443.4,691.2,1644.1,455.6,2950.6,862.7,500.8,1616.8,2745.9,183.6,56.1,24.6
0.122000,373.3,553.6,1591.1,494.5,2698.4,1215.3,480.2,1618.8,2732.5,183.9,55.3,27.6
0.124000,323.3,450.2,1534.6,423.8,2444.1,869.3,473.1,1619.4,2727.9,184.1,54.4,21.1
