time,f1,b1,f2,b2,f3,b3,f1p,f2p,f3p,f0,intensity,harmonicity
0.025000,818.0,86.4,1608.0,182.7,3243.2,195.2,823.7,1616.9,3208.3,85.2,72.3,3.2
0.027000,823.0,88.8,1605.1,184.5,3233.0,191.1,824.6,1614.4,3207.7,85.2,71.9,4.8
0.029000,826.7,91.2,1607.0,189.8,3220.2,189.3,826.2,1610.4,3206.8,85.1,71.6,6.6
0.031000,829.6,91.9,1608.8,191.6,3207.4,183.1,828.3,1604.9,3205.5,85,71.2,8.5
0.033000,831.7,91.8,1605.9,189.1,3197.2,174.2,831,1598.1,3203.8,84.9,70.9,10.2
0.035000,833.4,93.2,1597.9,188.1,3190.3,166.8,834,1590.2,3201.8,84.8,70.7,11.7
0.037000,835.7,97.0,1585.2,191.2,3188.3,167.4,837.5,1581.4,3199.3,84.8,70.4,12.8
0.039000,839.8,100.7,1571.4,194.8,3190.8,181.5,841.2,1572.1,3196.4,84.7,70.2,13.7
0.041000,846.4,102.5,1558.0,196.1,3191.0,209.7,845.1,1562.3,3193.1,84.6,70,14.4
0.043000,852.9,102.0,1547.2,196.2,3180.4,249.3,849.1,1552.4,3189.4,84.5,69.8,15
0.045000,857.8,100.9,1537.9,197.4,3155.9,288.9,853.2,1542.7,3185.3,84.5,69.6,15.7
0.047000,861.2,100.8,1529.6,197.9,3131.2,294.2,857.1,1533.4,3180.9,84.4,69.4,16.3
0.049000,863.4,101.6,1523.4,191.6,3128.5,263.8,861,1524.6,3176.2,84.3,69.2,17
0.051000,864.7,102.2,1519.2,175.9,3143.7,227.9,864.6,1516.7,3171.2,84.3,69.1,17.5
0.053000,865.8,103.0,1516.7,160.9,3164.6,205.0,868,1509.7,3166.1,84.2,68.9,18
0.055000,868.0,104.8,1514.8,156.1,3185.1,194.7,871.2,1503.8,3160.9,84.2,68.7,18.2
0.057000,872.3,107.4,1513.2,165.9,3202.1,195.3,874.1,1499.2,3155.7,84.2,68.6,18.1
0.059000,877.5,111.2,1510.4,190.2,3210.1,208.1,876.7,1495.7,3150.5,84.1,68.4,17.7
0.061000,882.0,116.3,1504.7,226.7,3202.2,237.6,879.1,1493.6,3145.6,84.1,68.2,17.2
0.063000,883.9,121.7,1497.7,258.3,3171.5,279.1,881.3,1492.6,3141,84.1,68,16.8
0.065000,884.3,125.2,1492.8,270.7,3123.6,314.2,883.4,1492.9,3136.8,84.1,67.8,16.4
0.067000,885.0,126.5,1491.6,269.3,3088.8,334.2,885.4,1494.4,3133.1,84,67.6,16.1
0.069000,885.8,129.1,1490.5,279.0,3092.7,354.8,887.4,1496.9,3130,84,67.4,15.9
0.071000,886.6,136.1,1485.3,315.6,3119.6,380.2,889.4,1500.3,3127.5,84,67.2,15.7
0.073000,888.2,143.8,1477.2,365.8,3133.8,415.0,891.6,1504.6,3125.7,84,66.9,15.5
0.075000,891.1,147.4,1476.1,399.0,3129.8,455.8,894,1509.6,3124.6,84,66.6,15.4
0.077000,895.5,145.2,1492.2,387.9,3130.4,467.3,896.7,1515.3,3124.3,84.1,66.4,15.5
0.079000,900.2,138.1,1514.8,343.8,3140.2,439.7,899.8,1521.4,3124.7,84.1,66.1,15.7
0.081000,903.8,128.1,1532.7,297.6,3144.7,405.8,903.3,1528,3125.8,84.1,65.8,16
0.083000,905.2,120.2,1542.7,269.5,3140.2,391.2,907.1,1535,3127.7,84.1,65.6,15.9
0.085000,906.5,116.2,1549.0,255.2,3130.6,386.3,911.5,1542.2,3130.1,84.1,65.4,15.3
0.087000,910.1,117.0,1558.7,250.2,3117.6,374.0,916.3,1549.6,3133.2,84.1,65.3,13.9
0.089000,916.6,126.8,1575.0,255.6,3108.6,369.1,921.5,1557.2,3136.8,84.2,65.2,11.8
0.091000,926.2,149.7,1590.7,258.4,3109.2,389.1,927.2,1565,3140.7,84.2,65.3,9.5
0.093000,936.8,170.5,1595.5,241.6,3118.2,409.4,933.2,1572.9,3145.1,84.2,65.3,7.3
0.095000,947.8,173.4,1596.4,212.5,3132.0,397.9,939.4,1581,3149.6,84.2,65.4,5.7
0.097000,957.7,161.6,1599.0,184.1,3143.3,353.0,945.9,1589.2,3154.4,84.2,65.3,4.7
0.099000,966.9,146.1,1603.9,158.5,3151.9,292.8,952.5,1597.6,3159.2,84.3,65.1,4
0.101000,975.0,133.0,1610.4,137.0,3162.4,233.2,959,1606.2,3164.1,84.3,64.7,3.7
0.103000,978.0,127.9,1615.6,124.8,3178.1,192.9,965.4,1614.9,3169,84.3,64.2,3.6
0.105000,971.9,139.6,1613.6,125.8,3200.0,169.8,971.6,1623.9,3173.9,84.3,63.7,3.7
0.107000,964.5,166.3,1605.3,131.8,3219.1,146.8,977.5,1632.9,3178.7,84.3,63.3,4.3
0.109000,968.7,180.2,1608.7,128.8,3229.8,123.4,982.9,1642.1,3183.4,84.3,62.9,5.3
0.111000,978.2,181.5,1627.5,123.7,3233.7,111.1,987.7,1651.4,3188.1,84.3,62.6,6.5
0.113000,983.3,188.3,1650.8,124.7,3228.9,113.9,991.9,1660.8,3192.6,84.3,62.4,7.7
0.115000,985.0,206.2,1674.9,137.6,3213.1,134.1,995.4,1670.2,3197.1,84.3,62.2,8.7
0.117000,988.4,226.4,1698.2,165.8,3182.1,175.4,998.1,1679.5,3201.6,84.3,62,9.4
0.119000,994.7,237.6,1712.9,200.9,3143.6,231.5,1000,1688.8,3206.1,84.3,61.8,10.1
0.121000,1000.8,251.4,1714.0,233.4,3124.3,289.0,1001.1,1697.9,3210.6,84.3,61.7,10.6
0.123000,1003.9,278.2,1705.2,245.6,3157.0,307.9,1001.4,1706.7,3215.1,84.3,61.5,11
0.125000,1002.5,323.1,1694.0,234.7,3215.1,273.7,1000.9,1715.3,3219.7,84.3,61.1,11.4
0.127000,998.1,376.0,1687.9,218.7,3253.1,228.9,999.7,1723.5,3224.3,84.3,60.7,15
0.129000,995.7,405.9,1690.4,218.5,3270.8,207.9,997.8,1731.3,3228.9,84.3,60.2,21.8
0.131000,999.2,373.0,1707.1,249.5,3275.9,220.4,995.4,1738.7,3233.5,84.3,59.6,26.8
0.133000,1003.1,303.5,1741.0,304.9,3269.0,269.0,992.6,1745.5,3238,84.4,59,25
0.135000,1003.1,250.2,1784.3,341.5,3245.4,332.6,989.4,1751.7,3242.5,84.4,58.4,11.5
0.137000,1001.2,242.3,1809.4,314.6,3221.5,337.8,985.9,1757.4,3246.9,84.4,57.9,-20.7
0.139000,1000.0,279.7,1817.4,264.8,3217.4,297.3,982.4,1762.5,3251.1,84.4,57.3,-68
0.141000,994.7,360.9,1816.1,230.5,3231.2,247.5,979,1767,3255,84.4,56.6,-120.5
0.143000,976.4,435.1,1809.8,220.0,3251.3,191.8,975.7,1770.9,3258.5,84.4,56,-167.9
0.145000,953.0,443.2,1803.2,236.4,3265.4,136.6,972.6,1774.1,3261.7,84.5,55.3,-200
0.147000,945.1,405.8,1795.9,284.1,3269.8,99.0,970,1776.8,3264.4,84.5,54.5,-213.5
0.149000,953.8,389.4,1784.8,331.9,3269.4,84.3,967.9,1778.9,3266.5,84.5,53.8,-215.2
0.151000,969.6,438.8,1763.6,345.0,3270.7,87.8,966.3,1780.3,3268.1,84.5,52.8,-210.2
0.153000,980.4,597.2,1727.9,326.2,3276.4,111.1,965.3,1781.2,3269.1,84.6,51.9,-203.4
0.155000,954.1,920.1,1684.0,269.6,3286.2,162.1,965,1781.5,3269.4,84.6,51.1,-200
