time,f1,b1,f2,b2,f3,b3,f1p,f2p,f3p,f0,intensity,harmonicity
0.025000,776.8,94.0,1568.1,138.5,3462.5,274.2,794.1,1583.6,3461.5,181,71.5,18.8
0.027000,781.6,95.8,1569.0,141.5,3466.2,290.9,794.2,1581.1,3458.2,180.9,71.4,19.4
0.029000,786.2,97.9,1571.0,145.8,3463.9,306.1,794.6,1577.2,3452.9,180.8,71.4,20
0.031000,792.3,98.6,1572.5,145.7,3449.1,315.4,795.1,1572.1,3445.8,180.7,71.3,20.5
0.033000,798.7,97.8,1571.7,142.5,3430.7,310.1,795.9,1566.2,3437.3,180.5,71.2,21.1
0.035000,804.7,96.6,1568.0,140.1,3414.8,298.7,797.1,1560,3427.7,180.4,71.2,21.5
0.037000,809.2,96.0,1562.0,140.1,3402.7,286.3,798.7,1553.9,3417.3,180.3,71.2,22.1
0.039000,812.6,96.4,1555.1,142.9,3393.4,270.1,800.8,1548.4,3406.7,180.2,71.1,22.7
0.041000,815.3,97.1,1548.9,147.3,3388.1,252.6,803.5,1543.7,3396.2,180,71.1,23.3
0.043000,817.8,96.4,1545.3,150.5,3387.0,246.0,806.7,1540.2,3386,179.9,71.1,23.6
0.045000,820.4,94.3,1543.5,152.6,3388.0,252.0,810.4,1538.2,3376.5,179.8,71.1,23.5
0.047000,822.3,91.8,1543.3,156.5,3387.3,256.4,814.5,1537.6,3367.9,179.7,71.1,22.6
0.049000,822.7,90.7,1544.2,165.3,3380.6,243.4,818.9,1538.4,3360.2,179.5,71.1,21.1
0.051000,822.4,91.4,1545.3,180.3,3365.1,218.3,823.5,1540.5,3353.4,179.4,71,19.4
0.053000,822.7,92.3,1545.9,194.2,3347.3,202.4,828,1543.5,3347.5,179.3,71,18.1
0.055000,824.8,92.0,1546.0,199.5,3332.9,198.3,832.3,1547,3342.3,179.2,71,17.7
0.057000,827.5,90.8,1545.9,195.6,3325.3,191.6,836.2,1550.7,3337.6,179.2,71,18.5
0.059000,829.7,89.5,1546.3,186.2,3322.9,175.8,839.4,1554.1,3333,179.1,71,20.2
0.061000,831.7,88.4,1547.4,173.4,3322.0,157.8,841.9,1556.6,3328.4,179,71,22.2
0.063000,833.7,87.4,1548.4,158.9,3319.9,149.7,843.5,1558,3323.5,179,70.9,24
0.065000,836.5,85.4,1548.3,141.9,3316.2,158.1,844.2,1557.8,3317.9,178.9,70.8,25
0.067000,839.3,82.1,1546.2,126.9,3311.2,185.1,844,1556,3311.7,178.9,70.7,25.1
0.069000,841.3,78.4,1543.1,117.4,3303.8,223.6,842.9,1552.4,3304.5,178.9,70.6,24.7
0.071000,841.8,76.3,1540.0,116.6,3293.8,253.6,841.1,1547.1,3296.4,178.9,70.4,23.9
0.073000,840.9,77.3,1537.1,124.4,3285.4,258.3,838.8,1540.3,3287.4,178.9,70.2,23.1
0.075000,839.6,81.5,1533.5,137.1,3279.4,245.4,836.1,1532.3,3277.5,178.9,70.1,22.6
0.077000,838.9,87.1,1530.0,145.9,3275.3,235.1,833.4,1523.7,3267.1,178.9,69.9,22.4
0.079000,839.1,91.7,1526.6,147.3,3270.8,240.0,830.9,1514.8,3256.2,179,69.7,22.3
0.081000,840.0,93.8,1522.9,144.8,3261.1,263.1,828.8,1506.2,3245.2,179,69.5,22.4
0.083000,840.4,94.6,1518.8,144.6,3242.1,296.4,827.4,1498.6,3234.3,179.1,69.3,22.3
0.085000,839.6,96.8,1514.3,150.4,3218.4,320.0,826.9,1492.3,3223.9,179.2,69,22.1
0.087000,837.5,100.3,1508.2,161.4,3204.1,315.3,827.5,1488,3214.2,179.3,68.8,21.7
0.089000,835.1,103.0,1500.1,172.6,3200.0,284.7,829.1,1485.8,3205.5,179.3,68.5,21.1
0.091000,833.0,103.9,1489.2,182.0,3196.2,241.5,831.9,1486.1,3197.8,179.4,68.2,20.5
0.093000,831.5,102.4,1478.6,188.5,3190.1,209.9,835.6,1488.9,3191.4,179.5,67.9,19.8
0.095000,830.9,98.1,1469.1,194.4,3181.5,203.1,840.3,1494.1,3186.3,179.7,67.6,19.1
0.097000,832.4,92.6,1464.5,204.7,3168.9,226.9,845.6,1501.6,3182.4,179.8,67.2,18.3
0.099000,836.7,89.9,1471.1,228.4,3155.2,278.1,851.4,1511,3179.6,179.9,66.8,17.4
0.101000,843.8,91.0,1493.9,262.5,3150.2,370.2,857.2,1521.9,3177.9,180,66.4,16.5
0.103000,850.4,92.6,1524.8,282.1,3164.4,503.8,863,1533.7,3176.9,180.1,65.9,15.6
0.105000,854.9,94.2,1558.0,272.9,3224.8,589.2,868.2,1546,3176.6,180.2,65.5,14.6
0.107000,858.4,97.4,1582.1,235.8,3246.2,453.4,872.7,1558.3,3176.6,180.3,65.1,13.6
0.109000,865.9,106.7,1593.4,195.5,3204.5,381.4,876.3,1570,3176.7,180.4,64.7,12.5
0.111000,879.4,120.5,1596.9,168.6,3167.2,325.2,878.9,1580.7,3176.8,180.5,64.3,11.5
0.113000,892.2,128.9,1597.0,152.9,3155.1,276.6,880.2,1590.1,3176.7,180.6,63.9,10.4
0.115000,900.7,130.8,1596.6,141.1,3153.8,239.1,880.5,1598,3176.2,180.7,63.4,9.5
0.117000,904.9,130.4,1597.0,131.7,3157.1,209.2,879.6,1604.2,3175.5,180.8,62.8,8.6
0.119000,903.9,133.8,1599.6,129.3,3163.1,189.5,877.8,1608.9,3174.3,180.9,62,7.7
0.121000,895.9,156.1,1609.2,145.0,3172.6,179.8,875.3,1612,3172.9,180.9,61.1,6.8
0.123000,883.7,221.8,1632.2,183.7,3176.7,184.7,872.3,1613.9,3171.2,181,60.3,6.2
0.125000,872.3,363.3,1655.5,219.0,3161.9,244.0,869.1,1614.8,3169.5,181.1,59.3,5.8
0.127000,869.2,587.1,1654.2,248.9,3147.8,396.6,866,1614.9,3167.8,181.1,58.7,9
0.129000,878.5,863.2,1636.3,304.0,3162.5,631.7,863.3,1614.6,3166.3,181.2,57.7,15.8
0.131000,891.5,1128.6,1607.8,378.9,3187.1,880.0,861.2,1614.2,3165.1,181.2,56.8,21.1
0.133000,873.9,1405.1,1576.0,420.3,3186.9,1028.7,859.8,1613.9,3164.4,181.3,56.1,19.8
0.135000,739.2,1932.4,1551.9,390.8,3159.5,1133.4,859.4,1613.8,3164.1,181.3,55,6.8
