time,f1,b1,f2,b2,f3,b3,f1p,f2p,f3p,f0,intensity,harmonicity
0.025000,773.1,132.4,1627.9,146.3,3307.7,302.0,781.5,1611.2,3306.7,162.4,65,15.7
0.027000,777.7,130.4,1617.2,129.8,3293.7,267.1,782.7,1610.6,3306.9,162.3,64.8,15.9
0.029000,783.2,128.0,1611.4,117.6,3284.4,234.7,784.6,1609.7,3307.1,162.2,64.7,15.3
0.031000,789.7,124.8,1608.5,111.5,3281.7,211.9,787.1,1608.6,3307.1,162,64.6,14.3
0.033000,795.1,124.1,1605.8,115.7,3292.0,190.2,790.2,1607.4,3306.7,161.9,64.5,13.4
0.035000,798.4,127.4,1601.5,130.4,3315.5,148.7,793.6,1606.3,3305.7,161.8,64.3,12.9
0.037000,800.3,133.2,1596.3,148.7,3332.2,107.1,797.4,1605.3,3303.7,161.6,64.2,13.1
0.039000,802.7,141.0,1594.1,163.7,3336.9,87.4,801.3,1604.7,3300.7,161.5,64.1,13.6
0.041000,806.7,146.8,1596.9,174.4,3334.6,84.0,805.2,1604.4,3296.3,161.4,64,14.2
0.043000,810.8,146.1,1602.6,182.0,3324.8,93.5,809.1,1604.6,3290.7,161.2,63.8,14.8
0.045000,813.6,141.3,1607.4,193.8,3303.6,117.4,813,1605.2,3283.7,161.1,63.7,15.2
0.047000,815.7,137.2,1606.9,213.0,3269.8,160.0,816.8,1606.3,3275.5,161,63.6,15.3
0.049000,818.3,138.5,1602.0,236.6,3232.2,224.1,820.6,1607.7,3266.4,160.9,63.5,15.2
0.051000,821.7,145.8,1598.7,262.8,3208.3,318.0,824.4,1609.4,3256.5,160.8,63.4,15
0.053000,825.7,151.9,1603.1,277.1,3215.4,405.1,828.3,1611.1,3246.4,160.7,63.3,14.8
0.055000,831.5,149.5,1614.7,266.6,3231.2,417.2,832.3,1612.7,3236.4,160.7,63.1,14.7
0.057000,838.5,140.2,1626.3,238.9,3226.1,339.3,836.5,1614.1,3227,160.6,63,14.7
0.059000,844.9,130.9,1633.1,214.5,3214.0,239.6,840.8,1615,3218.6,160.5,62.9,14.8
0.061000,850.3,124.4,1633.6,200.3,3208.5,154.8,845.4,1615.3,3211.5,160.5,62.9,15
0.063000,853.3,122.7,1628.1,201.2,3209.9,103.7,850.1,1615,3206.1,160.5,62.9,15.1
0.065000,855.0,124.3,1618.5,216.0,3213.4,76.0,854.7,1613.9,3202.4,160.4,62.8,15.2
0.067000,857.2,124.5,1607.5,238.0,3214.8,64.3,859.1,1612.2,3200.7,160.4,62.8,15.2
0.069000,861.1,122.7,1597.2,262.4,3213.3,60.0,863.1,1609.8,3200.7,160.5,62.7,15.3
0.071000,865.3,120.3,1587.9,282.8,3211.1,58.0,866.4,1607,3202.2,160.5,62.6,15.3
0.073000,866.5,116.3,1587.1,262.3,3210.8,58.8,868.8,1604,3205,160.5,62.5,15.2
0.075000,863.3,113.8,1598.6,197.7,3213.1,66.5,869.9,1600.9,3208.5,160.6,62.3,15.2
0.077000,857.6,119.5,1609.3,145.6,3217.3,85.1,869.5,1598.1,3212.3,160.6,62.1,15
0.079000,853.3,126.9,1612.0,121.0,3222.1,109.2,867.4,1595.8,3215.8,160.7,62,14.9
0.081000,853.1,127.8,1607.0,113.3,3224.3,117.8,863.4,1594.2,3218.6,160.8,61.8,14.6
0.083000,855.6,126.3,1596.0,122.2,3219.7,99.6,857.7,1593.7,3220.1,160.9,61.6,14.4
0.085000,857.6,128.1,1582.7,150.5,3209.9,75.0,850.1,1594.3,3220,161,61.5,14
0.087000,857.1,131.4,1575.8,192.0,3199.1,55.7,841.1,1596.2,3217.9,161.1,61.3,13.5
0.089000,852.9,130.7,1581.2,225.2,3191.0,42.6,830.8,1599.3,3213.9,161.3,61.1,12.9
0.091000,843.4,124.5,1594.9,224.8,3186.6,34.0,819.7,1603.6,3207.8,161.4,60.9,12.2
0.093000,830.4,118.5,1607.4,192.4,3185.5,30.0,808.4,1608.9,3199.9,161.6,60.5,11.6
0.095000,813.4,117.5,1619.1,156.9,3186.0,30.5,797.5,1615.1,3190.6,161.8,60.1,11.2
0.097000,793.8,122.8,1631.6,135.8,3186.4,37.8,787.7,1621.7,3180.3,162,59.7,11
0.099000,776.7,133.6,1643.7,127.6,3185.3,55.3,779.7,1628.4,3169.7,162.1,59.1,10.8
0.101000,763.0,157.8,1653.2,127.7,3183.0,91.7,774.1,1635,3159.2,162.3,58.5,10.7
0.103000,750.5,209.2,1657.0,135.1,3183.2,145.4,771.4,1640.8,3149.6,162.5,57.8,10.8
0.105000,731.3,320.3,1654.5,148.1,3179.6,198.5,772.2,1645.8,3141.5,162.7,57.1,11.1
0.107000,703.6,507.2,1648.2,156.8,3150.8,219.2,776.6,1649.4,3135.4,162.9,56.5,11.6
0.109000,705.2,690.9,1646.1,155.1,3116.8,210.3,785,1651.6,3131.8,163.2,55.9,12.4
0.111000,776.7,767.3,1649.6,155.8,3100.0,194.8,797.1,1652.1,3130.8,163.4,55.3,13.2
0.113000,862.7,735.4,1651.5,162.1,3099.6,184.3,812.7,1651,3132.6,163.6,54.8,14
0.115000,923.3,694.1,1645.9,164.3,3108.5,174.8,831.4,1648.3,3137.1,163.8,54.2,14.4
0.117000,944.6,701.1,1632.8,147.9,3124.1,165.4,852.5,1644.2,3144,164,53.5,17.9
0.119000,933.5,752.0,1621.2,118.1,3144.9,161.7,875.1,1639,3152.9,164.2,52.8,24.5
0.121000,906.6,853.1,1613.9,92.6,3171.8,169.5,898.3,1633,3163.1,164.3,52,29.2
0.123000,883.8,1014.6,1610.0,81.4,3199.7,182.8,921.2,1626.6,3174.1,164.5,51.1,27.1
0.125000,883.1,1207.6,1609.4,81.4,3220.2,189.8,942.7,1620.2,3185,164.7,50.1,13.2
0.127000,929.0,1296.7,1613.2,93.7,3225.1,189.0,961.9,1614.3,3195.1,164.8,49,-19.2
0.129000,994.8,1267.6,1618.9,118.2,3219.7,186.7,977.9,1609.2,3203.9,165,47.7,-67
0.131000,1037.5,1263.4,1620.5,151.1,3208.8,190.3,989.8,1605.3,3210.5,165.1,46.3,-119.9
0.133000,1024.4,1394.3,1616.2,180.7,3195.8,204.5,997.2,1602.9,3214.7,165.3,44.8,-167.6
0.135000,914.6,1634.7,1616.6,207.7,3180.0,232.2,999.7,1602,3216.2,165.4,43.2,-200
