time,f1,b1,f2,b2,f3,b3,f1p,f2p,f3p,f0,intensity,harmonicity
0.026000,771.9,112.3,1700.9,144.5,3293.8,200.5,791.4,1660.2,3267.8,174.1,69.4,4.9
0.028000,780.1,120.8,1683.1,149.4,3282.9,192.7,792.2,1662.4,3268.1,173.9,69.2,5.7
0.030000,788.5,125.7,1667.9,147.9,3277.3,193.6,793.5,1665.7,3268.7,173.6,69,6.7
0.032000,797.1,124.7,1658.1,142.7,3276.1,206.1,795.3,1669.9,3269.5,173.4,68.9,7.7
0.034000,804.5,121.2,1655.8,139.6,3279.0,236.1,797.7,1674.6,3270.6,173.1,68.7,8.7
0.036000,809.1,120.2,1662.3,139.5,3281.1,271.0,800.6,1679.3,3271.8,172.8,68.6,9.9
0.038000,813.4,120.6,1674.0,134.6,3271.5,284.6,804.1,1683.4,3273.2,172.5,68.5,11.2
0.040000,818.2,120.4,1684.4,126.8,3257.5,267.6,808.1,1686.5,3274.7,172.2,68.4,12.7
0.042000,823.2,118.6,1691.6,121.0,3248.0,240.2,812.7,1688,3276.4,171.9,68.3,14
0.044000,827.5,116.0,1693.7,119.7,3243.2,218.5,817.7,1687.7,3278.2,171.6,68.2,15
0.046000,830.5,116.5,1687.3,125.0,3243.0,216.0,823.3,1685.1,3280,171.3,68.1,15.4
0.048000,831.7,123.3,1670.2,139.7,3249.0,240.2,829.3,1680.3,3281.9,170.9,68,15.3
0.050000,830.4,134.4,1647.7,159.3,3264.0,286.4,835.6,1673.3,3283.8,170.6,67.9,14.7
0.052000,829.7,144.2,1630.5,169.3,3286.8,322.1,842.2,1664.1,3285.7,170.3,67.8,14.1
0.054000,836.3,149.6,1628.5,155.7,3302.3,300.9,849.1,1653.1,3287.6,169.9,67.7,13.6
0.056000,849.5,149.6,1634.8,131.1,3309.1,244.5,856.1,1640.9,3289.4,169.6,67.5,13.4
0.058000,863.4,145.6,1639.6,113.3,3319.7,190.1,863.1,1627.9,3291.1,169.3,67.4,13.4
0.060000,873.6,140.6,1639.8,108.7,3329.6,151.3,870.1,1614.9,3292.6,168.9,67.3,13.5
0.062000,881.3,134.9,1634.5,114.6,3332.0,123.9,877,1602.5,3294,168.6,67.2,13.6
0.064000,887.5,127.6,1622.4,127.9,3323.6,105.6,883.7,1591.5,3295.2,168.3,67.1,13.6
0.066000,891.5,120.2,1605.6,142.7,3306.2,94.4,890.2,1582.5,3296.2,167.9,67,13.3
0.068000,894.2,113.5,1587.3,157.3,3284.9,87.4,896.3,1576.1,3297,167.6,66.9,12.7
0.070000,896.6,110.1,1578.6,171.2,3272.2,88.7,902.1,1572.9,3297.4,167.3,66.7,12
0.072000,900.3,110.0,1583.9,185.4,3271.9,104.4,907.6,1573.2,3297.6,167,66.4,11.3
0.074000,904.8,111.3,1593.3,203.2,3280.1,137.2,912.7,1577.1,3297.4,166.7,66.2,10.7
0.076000,909.6,112.6,1593.1,233.8,3290.3,169.4,917.5,1584.7,3296.9,166.4,66,10.5
0.078000,916.7,112.6,1579.0,295.8,3297.1,166.6,921.9,1595.7,3296,166.2,65.9,10.4
0.080000,926.9,110.7,1555.4,407.7,3297.8,137.1,926,1610,3294.8,165.9,65.7,10.5
0.082000,939.5,102.4,1545.1,571.3,3295.8,120.2,929.8,1626.9,3293.2,165.7,65.6,10.7
0.084000,948.7,83.6,1597.4,677.9,3294.5,127.0,933.5,1645.9,3291.3,165.4,65.4,10.9
0.086000,952.4,70.4,1678.5,651.9,3296.0,153.3,936.8,1666.2,3289,165.2,65.1,11.3
0.088000,954.2,67.9,1733.1,602.5,3297.4,191.3,940,1687.2,3286.3,165.1,64.8,11.9
0.090000,954.4,75.5,1752.0,575.6,3291.1,215.8,943,1708.1,3283.4,164.9,64.4,12.5
0.092000,951.8,93.3,1746.6,534.6,3274.4,215.5,945.7,1728.1,3280.3,164.8,63.9,13.2
0.094000,945.6,117.0,1738.9,443.4,3253.7,202.7,948.1,1746.6,3276.9,164.7,63.4,13.6
0.096000,939.8,131.3,1749.9,339.8,3238.8,197.5,950.2,1763,3273.4,164.6,62.8,13.8
0.098000,938.2,133.7,1772.4,259.2,3233.3,212.5,951.9,1776.9,3269.8,164.6,62.3,13.7
0.100000,939.2,132.8,1790.0,217.4,3241.1,253.0,953.1,1788,3266.2,164.5,61.9,13.5
0.102000,940.4,136.5,1799.9,206.2,3262.8,307.6,953.7,1796.1,3262.6,164.5,61.4,13.1
0.104000,940.7,145.1,1806.1,221.6,3287.3,327.2,953.6,1801.2,3259.2,164.6,61,12.7
0.106000,940.6,151.6,1811.9,260.7,3292.5,279.9,952.8,1803.5,3255.9,164.6,60.6,12.2
0.108000,942.7,153.8,1815.1,312.1,3283.2,206.7,951.1,1803.1,3252.8,164.7,60.2,11.5
0.110000,946.5,161.3,1807.5,329.1,3274.3,149.2,948.5,1800.5,3250,164.9,59.8,10.7
0.112000,948.8,186.7,1794.5,299.0,3270.4,117.0,944.9,1796.1,3247.5,165,59.4,10
0.114000,949.5,236.9,1787.9,254.0,3268.8,109.8,940.4,1790.3,3245.4,165.2,59,9.4
0.116000,953.4,312.3,1788.1,220.8,3267.1,125.3,934.9,1783.7,3243.7,165.4,58.5,9.3
0.118000,964.4,420.1,1787.4,202.8,3264.7,171.8,928.5,1776.6,3242.3,165.6,58.1,9.5
0.120000,966.5,523.1,1780.0,202.4,3259.6,261.2,921.4,1769.4,3241.2,165.8,57.7,9.9
0.122000,932.5,575.1,1765.0,217.6,3243.5,388.2,913.6,1762.6,3240.6,166,57.4,10.4
0.124000,879.9,562.9,1744.7,240.1,3208.4,487.7,905.4,1756.5,3240.2,166.3,57,10.8
0.126000,853.2,523.5,1729.2,244.8,3174.2,511.5,896.9,1751,3240.1,166.5,56.8,11.8
0.128000,853.6,499.1,1721.6,227.5,3160.7,488.4,888.4,1746.5,3240.2,166.8,56.5,17.4
0.130000,864.4,499.8,1718.3,202.6,3170.2,436.5,880.1,1742.9,3240.5,167,56.1,23.7
0.132000,873.3,514.7,1716.3,180.3,3189.5,367.9,872.3,1740.2,3240.9,167.3,55.7,25.8
0.134000,875.3,540.8,1717.5,169.2,3214.4,301.9,865.2,1738.2,3241.4,167.6,55.3,18.7
0.136000,870.9,583.6,1724.8,177.5,3242.8,255.7,859,1736.8,3241.8,167.8,54.8,-3.4
0.138000,860.4,665.5,1739.7,212.5,3269.6,226.9,854,1736,3242.2,168,54.1,-44.2
0.140000,842.6,801.6,1756.7,272.9,3286.2,220.8,850.3,1735.5,3242.6,168.3,53.5,-95
0.142000,828.5,991.1,1765.3,341.0,3295.9,239.3,848,1735.2,3242.8,168.5,52.6,-145.8
0.144000,879.4,1129.4,1772.4,376.3,3308.0,286.6,847.2,1735.1,3242.8,168.7,51.5,-186.6
