time,f1,b1,f2,b2,f3,b3,f1p,f2p,f3p,f0,intensity,harmonicity
0.025000,833.3,125.1,1916.6,216.3,2596.9,433.6,842.9,1908,2597.8,196.3,66.5,10.6
0.027000,840.6,120.5,1913.9,222.4,2595.9,422.7,843.9,1906.3,2598.3,196.3,66.6,11.7
0.029000,846.9,116.1,1905.2,222.6,2596.5,384.5,845.5,1903.6,2599,196.4,66.6,12.8
0.031000,852.3,113.3,1895.8,217.1,2597.8,340.3,847.8,1899.8,2600,196.4,66.6,13.7
0.033000,857.2,112.3,1888.4,207.9,2600.0,299.6,850.8,1895.1,2601.2,196.5,66.6,14.6
0.035000,861.3,112.5,1882.6,200.5,2602.3,274.5,854.2,1889.4,2602.7,196.5,66.5,15.3
0.037000,865.1,112.1,1875.7,196.2,2603.4,264.5,858.2,1882.9,2604.2,196.6,66.5,15.9
0.039000,869.2,111.2,1866.7,196.5,2603.9,269.4,862.6,1875.7,2605.8,196.7,66.4,16.3
0.041000,873.0,111.7,1856.7,204.6,2604.8,290.4,867.4,1867.9,2607.5,196.7,66.3,16.5
0.043000,876.4,114.2,1846.1,218.9,2606.7,322.5,872.4,1859.5,2609.2,196.8,66.2,16.7
0.045000,880.2,116.9,1837.1,227.4,2610.5,342.6,877.8,1850.8,2610.8,196.9,66.1,16.7
0.047000,885.0,117.3,1831.0,221.7,2616.5,336.3,883.3,1841.8,2612.3,197,66,16.6
0.049000,890.5,116.3,1828.6,210.6,2622.9,319.6,888.9,1832.6,2613.6,197,65.9,16.2
0.051000,895.3,116.4,1829.1,206.8,2627.2,312.9,894.5,1823.5,2614.9,197.1,65.8,15.8
0.053000,899.4,119.2,1830.0,213.1,2627.4,319.2,900,1814.4,2615.9,197.2,65.6,15.5
0.055000,903.0,123.4,1828.1,224.5,2622.2,331.2,905.4,1805.6,2616.9,197.3,65.5,15.3
0.057000,906.4,127.0,1821.6,232.9,2615.2,336.8,910.7,1797.1,2617.7,197.4,65.4,15.3
0.059000,909.9,128.9,1811.8,235.1,2613.3,329.5,915.7,1789,2618.4,197.5,65.3,15.4
0.061000,912.6,129.6,1800.5,233.5,2617.5,315.9,920.4,1781.5,2619.2,197.6,65.2,15.7
0.063000,914.6,128.8,1786.8,225.0,2622.2,299.5,924.7,1774.5,2620,197.7,65,16
0.065000,916.0,126.9,1772.8,207.9,2622.7,289.4,928.8,1768.2,2621.1,197.8,64.9,16.3
0.067000,917.1,127.1,1761.3,191.7,2619.8,299.3,932.4,1762.7,2622.4,197.9,64.8,16.8
0.069000,918.9,130.8,1754.7,186.5,2619.4,329.0,935.7,1757.9,2624.1,198,64.6,17.4
0.071000,922.2,133.0,1751.8,189.1,2626.1,345.2,938.5,1753.9,2626.4,198.1,64.5,18.1
0.073000,926.9,130.1,1749.0,192.5,2638.1,329.0,941.1,1750.7,2629.4,198.2,64.3,18.5
0.075000,931.0,125.6,1744.4,194.5,2651.5,305.3,943.2,1748.3,2633.2,198.3,64.2,18.6
0.077000,933.8,125.0,1738.1,198.7,2665.7,302.7,945.1,1746.6,2638.1,198.3,64,18.2
0.079000,936.4,127.2,1730.5,205.2,2672.6,325.9,946.8,1745.8,2644.1,198.4,63.9,17.5
0.081000,939.8,127.3,1724.3,211.2,2661.3,359.2,948.2,1745.6,2651.5,198.5,63.7,16.6
0.083000,943.8,129.2,1722.9,229.2,2633.5,414.1,949.5,1746.1,2660.3,198.6,63.5,15.6
0.085000,948.0,135.3,1726.6,264.3,2592.8,487.1,950.8,1747.2,2670.6,198.6,63.3,14.8
0.087000,954.6,140.5,1736.5,290.1,2570.5,527.9,952.1,1748.8,2682.7,198.7,63.1,14
0.089000,967.6,141.2,1757.6,266.8,2615.1,523.0,953.6,1750.9,2696.5,198.7,62.8,13.1
0.091000,988.5,139.1,1779.4,209.6,2692.3,468.9,955.2,1753.4,2712.2,198.8,62.6,12.3
0.093000,1016.8,136.4,1792.9,158.9,2749.2,386.4,957.2,1756.2,2729.7,198.8,62.4,11.5
0.095000,1043.3,133.4,1797.5,128.6,2777.9,318.0,959.5,1759.2,2749.1,198.8,62.1,10.9
0.097000,1059.2,132.7,1794.6,112.8,2792.9,272.7,962.4,1762.4,2770.4,198.8,61.7,10.4
0.099000,1058.8,139.7,1784.0,109.1,2807.5,249.3,965.8,1765.6,2793.5,198.8,61.3,9.9
0.101000,1039.8,157.8,1766.3,119.4,2835.6,245.5,969.9,1768.8,2818.3,198.7,60.8,9.6
0.103000,1006.8,186.7,1741.3,150.3,2888.3,248.2,974.7,1772,2844.8,198.7,60.4,9.5
0.105000,978.3,220.0,1716.6,206.2,2943.9,244.2,980.4,1774.9,2872.7,198.6,60,9.6
0.107000,962.5,255.1,1705.1,273.1,2978.2,247.6,986.9,1777.7,2902,198.6,59.6,10.1
0.109000,952.7,296.1,1709.9,331.0,2997.5,274.4,994.3,1780.2,2932.4,198.5,59.3,11
0.111000,942.7,357.2,1719.3,393.6,3014.6,326.6,1002.6,1782.5,2963.7,198.3,58.9,12.1
0.113000,929.7,449.7,1729.2,486.4,3031.3,402.2,1011.9,1784.3,2995.7,198.2,58.6,13.1
0.115000,911.7,542.7,1756.5,568.9,3038.0,476.8,1022.1,1785.8,3028.1,198.1,58.3,13.9
0.117000,886.5,576.8,1823.4,507.9,3046.0,517.1,1033.3,1786.9,3060.7,197.9,58,14.5
0.119000,876.3,581.5,1875.1,351.2,3067.0,511.9,1045.4,1787.6,3093.3,197.7,57.6,14.9
0.121000,900.5,596.6,1892.4,253.6,3094.1,494.0,1058.3,1787.9,3125.5,197.5,57.2,15.3
0.123000,955.4,629.7,1893.1,216.1,3129.0,476.6,1072,1787.8,3157.1,197.3,56.8,15.5
0.125000,1022.6,703.6,1880.0,219.9,3162.7,450.5,1086.5,1787.2,3187.9,197.1,56.3,15.6
0.127000,1085.0,874.1,1850.9,243.8,3184.8,427.8,1101.6,1786.3,3217.5,196.9,55.8,15.5
0.129000,1122.9,1213.2,1810.9,251.7,3191.5,436.2,1117.2,1785,3245.9,196.7,55.3,15.2
0.131000,1118.0,1691.4,1783.1,230.0,3187.9,478.4,1133.2,1783.3,3272.8,196.5,54.6,14.8
0.133000,1159.7,2075.2,1767.3,212.6,3186.7,529.3,1149.5,1781.3,3298.1,196.2,54,14.3
0.135000,1362.6,1955.7,1750.5,212.0,3219.5,550.4,1165.9,1778.9,3321.5,196,53.4,13.5
0.137000,1547.6,1517.3,1733.1,217.4,3313.4,492.5,1182.3,1776.3,3343,195.8,52.6,15.7
0.139000,1622.3,1164.1,1721.2,220.7,3405.6,352.2,1198.6,1773.4,3362.5,195.5,51.9,20.9
0.141000,1622.3,1048.1,1716.4,211.8,3452.1,256.8,1214.5,1770.3,3379.9,195.3,51.1,24.3
0.143000,1540.8,1093.2,1720.2,190.1,3471.0,223.0,1229.9,1767,3395.3,195.1,50.3,21.3
0.145000,1371.2,1201.9,1725.6,164.8,3470.0,239.8,1244.7,1763.5,3408.6,194.9,49.5,7.1
0.147000,1116.4,1212.2,1728.9,145.9,3450.2,285.5,1258.7,1759.8,3419.9,194.7,48.7,-24.8
0.149000,950.1,866.7,1734.2,137.1,3421.5,311.1,1271.8,1756,3429.3,194.5,47.9,-71.2
0.151000,969.1,659.3,1742.1,136.8,3406.3,299.5,1283.8,1752.1,3436.8,194.3,47.2,-122.4
0.153000,1026.7,590.8,1748.2,140.6,3409.9,277.5,1294.6,1748,3442.7,194.2,46.6,-168.6
0.155000,1098.7,589.2,1744.3,143.7,3428.3,259.0,1304.1,1743.9,3447,0,45.8,-200
0.157000,1165.9,616.8,1727.4,138.9,3452.3,244.7,1312.3,1739.7,3449.9,0,45.5,-213.3
0.159000,1196.9,630.0,1709.2,120.8,3473.3,242.2,1318.9,1735.4,3451.6,0,44.8,-214.9
0.161000,1210.3,610.6,1706.5,104.8,3491.6,252.7,1324,1731.1,3452.3,0,44.4,-209.9
0.163000,1258.0,582.1,1723.2,98.6,3510.3,257.3,1327.6,1726.8,3452.2,0,44.3,-203.3
0.165000,1322.1,521.0,1751.1,88.2,3516.6,245.0,1329.6,1722.4,3451.4,0,44,-200
0.167000,1351.3,451.4,1771.6,68.4,3508.7,233.1,1330,1717.9,3450.1,0,44,-200
0.169000,1347.0,402.9,1778.5,54.2,3497.8,236.7,1328.8,1713.5,3448.5,0,43.9,-200
0.171000,1345.0,374.6,1776.3,54.3,3491.3,273.2,1326.1,1709,3446.8,0,43.7,-200
0.173000,1368.7,363.1,1767.2,75.2,3485.0,374.0,1321.9,1704.5,3445.2,0,43.4,-200
0.175000,1413.3,369.7,1750.4,135.0,3474.3,552.2,1316.4,1700.1,3443.6,0,43.1,-200
0.177000,1461.5,378.8,1718.4,258.8,3457.6,816.4,1309.6,1695.6,3442.3,0,42.6,-200
0.179000,1482.3,378.7,1670.3,406.3,3406.8,1112.8,1301.7,1691.2,3441.3,0,42.2,-200
0.181000,1439.6,439.0,1645.2,401.9,3344.3,1260.3,1292.8,1686.8,3440.8,0,41.9,-200
0.183000,1353.5,484.4,1656.5,305.2,3330.1,1199.7,1283.1,1682.5,3440.6,0,41.6,-200
0.185000,1284.8,487.8,1663.3,215.6,3356.3,1024.4,1272.7,1678.3,3440.9,0,41.6,-200
0.187000,1244.8,482.0,1656.7,155.8,3385.5,848.7,1261.7,1674.2,3441.7,0,41.5,-200
0.189000,1233.1,478.3,1638.0,124.5,3407.4,737.7,1250.5,1670.2,3442.8,0,41.4,-200
0.191000,1231.4,485.2,1615.2,110.6,3421.6,712.5,1239.1,1666.3,3444.4,0,41.2,-200
0.193000,1221.3,517.5,1598.1,109.5,3428.7,787.1,1227.8,1662.7,3446.2,0,40.8,-200
0.195000,1207.7,566.8,1596.9,129.5,3426.5,961.5,1216.7,1659.2,3448.3,0,40.3,-200
0.197000,1195.9,580.9,1622.9,176.1,3416.1,1147.4,1206.1,1656,3450.6,0,39.5,-200
0.199000,1165.6,524.7,1685.7,212.8,3415.7,1148.2,1196,1653.1,3452.9,0,38.6,-200
0.201000,1126.0,483.3,1733.3,197.7,3420.9,955.9,1186.7,1650.4,3455.3,0,37.7,-200
0.203000,1119.1,510.9,1731.1,176.0,3430.9,732.6,1178.3,1648,3457.5,0,36.9,-200
0.205000,1129.5,590.2,1703.8,163.5,3449.4,554.7,1171,1646,3459.6,0,36.3,-200
0.207000,1125.2,690.7,1676.4,156.8,3463.3,469.5,1164.8,1644.3,3461.4,0,36,-200
0.209000,1120.5,825.2,1654.1,162.4,3483.6,491.2,1159.9,1642.9,3462.8,0,35.9,-200
0.211000,1139.2,1025.1,1631.4,178.7,3518.1,615.0,1156.3,1641.9,3463.9,0,35.9,-200
0.213000,1182.0,1241.0,1602.0,191.9,3559.3,850.5,1154.1,1641.4,3464.6,0,35.9,-200
0.215000,1223.8,1312.4,1572.5,192.4,3597.3,1092.1,1153.4,1641.2,3464.8,0,35.9,-200
