time,f1,b1,f2,b2,f3,b3,f1p,f2p,f3p,f0,intensity,harmonicity
0.025000,855.3,96.1,1842.8,210.1,2822.6,596.7,841,1840.2,2797.3,211.3,82.1,15.3
0.027000,860.8,98.6,1835.5,212.2,2799.3,591.8,843.1,1837.8,2796.2,211.3,82.2,16.5
0.029000,865.9,100.8,1828.9,215.8,2778.9,581.7,846.6,1834,2794.5,211.3,82.3,17.3
0.031000,870.5,102.5,1823.6,219.2,2764.9,587.7,851.3,1828.6,2792.2,211.3,82.4,17.9
0.033000,873.7,103.6,1819.6,225.0,2759.8,622.4,857.2,1821.9,2789.2,211.4,82.5,18.5
0.035000,876.4,104.7,1815.4,235.4,2759.6,681.1,863.9,1814,2785.7,211.4,82.5,19.3
0.037000,879.0,105.9,1809.4,249.9,2757.5,744.2,871.4,1805,2781.8,211.4,82.5,20.5
0.039000,881.8,107.4,1801.0,267.0,2751.8,791.2,879.3,1795.1,2777.4,211.5,82.5,21.9
0.041000,884.6,109.4,1789.7,284.9,2748.7,813.2,887.4,1784.4,2772.6,211.5,82.5,23.3
0.043000,887.1,111.1,1776.9,299.8,2753.4,811.9,895.5,1773.1,2767.6,211.6,82.5,24.5
0.045000,889.3,112.3,1762.9,310.7,2762.9,794.6,903.3,1761.5,2762.4,211.7,82.5,25.4
0.047000,891.7,112.6,1748.8,316.6,2771.6,761.0,910.5,1749.8,2757.1,211.8,82.4,25.8
0.049000,894.8,112.3,1735.9,317.6,2775.3,707.8,917,1738.1,2751.9,211.9,82.4,25.8
0.051000,898.3,111.7,1724.5,317.1,2772.3,640.2,922.4,1726.6,2746.7,212,82.3,25.6
0.053000,901.1,111.4,1714.7,319.7,2766.1,582.1,926.7,1715.5,2741.8,212.2,82.2,25.5
0.055000,902.6,111.6,1705.2,325.2,2762.1,540.6,929.6,1705.1,2737.1,212.4,82.2,25.6
0.057000,903.0,112.4,1694.9,329.8,2761.9,510.8,931.1,1695.4,2732.9,212.5,82.1,26.3
0.059000,902.9,113.4,1684.0,331.2,2763.2,479.0,931.1,1686.7,2729.1,212.8,82,27.3
0.061000,903.4,114.7,1674.5,328.9,2762.8,427.8,929.6,1679.1,2725.9,213,81.9,28.4
0.063000,905.3,115.8,1669.6,324.0,2758.3,364.6,926.6,1672.5,2723.3,213.2,81.7,29
0.065000,908.0,116.5,1668.5,319.4,2749.4,311.7,922.3,1667.3,2721.4,213.5,81.6,28.8
0.067000,910.2,116.9,1668.5,319.4,2737.5,286.3,916.7,1663.4,2720.2,213.8,81.4,27.3
0.069000,911.3,117.6,1668.1,324.7,2726.5,288.0,910,1660.8,2719.9,214.1,81.2,24.9
0.071000,912.3,118.5,1669.1,328.3,2722.5,307.0,902.4,1659.5,2720.4,214.4,80.9,22.2
0.073000,914.0,119.5,1672.4,326.9,2729.2,335.8,894.2,1659.6,2721.8,214.7,80.7,19.7
0.075000,915.2,122.4,1674.8,334.2,2741.8,387.1,885.8,1661,2724.1,215,80.4,18.2
0.077000,914.8,129.2,1673.4,367.0,2752.2,479.1,877.3,1663.7,2727.2,215.4,80.1,17.8
0.079000,912.9,139.5,1668.1,427.6,2753.5,603.1,869.1,1667.6,2731.3,215.8,79.7,18.3
0.081000,910.2,151.8,1657.9,508.7,2742.8,716.2,861.5,1672.5,2736.2,216.2,79.3,19.1
0.083000,906.1,165.3,1641.7,596.1,2725.2,766.1,854.9,1678.4,2742,216.6,79,19.6
0.085000,899.3,181.4,1623.5,686.9,2704.0,746.8,849.6,1685.2,2748.7,217,78.6,19.5
0.087000,890.3,194.2,1639.2,707.9,2691.2,662.9,845.8,1692.7,2756.1,217.4,78.1,18.4
0.089000,879.0,202.5,1690.5,607.8,2694.9,565.4,843.9,1700.9,2764.2,217.9,77.7,16.6
0.091000,865.5,213.0,1726.9,474.0,2700.8,483.0,844.1,1709.5,2773,218.3,77.3,14.6
0.093000,852.7,227.6,1742.6,392.3,2706.1,437.9,846.6,1718.4,2782.4,218.8,76.8,12.7
0.095000,840.2,240.8,1746.2,364.5,2713.1,433.7,851.5,1727.5,2792.4,219.2,76.3,11.4
0.097000,830.9,253.1,1745.1,386.3,2726.8,467.6,859,1736.7,2802.9,219.7,75.8,10.6
0.099000,827.2,278.4,1751.9,449.7,2757.3,508.2,869,1745.9,2813.8,220.1,75.2,10.2
0.101000,826.7,328.7,1778.8,513.3,2803.2,490.0,881.7,1754.9,2825,220.6,74.6,10
0.103000,818.1,400.2,1802.1,520.9,2835.0,433.8,896.8,1763.6,2836.5,221.1,74,9.9
0.105000,799.0,498.1,1806.0,482.1,2856.5,386.6,914.4,1771.9,2848.3,221.5,73.4,9.9
0.107000,814.1,630.1,1810.1,405.8,2880.6,336.6,934.2,1779.8,2860.2,222,72.8,10
0.109000,890.5,693.1,1811.5,327.7,2911.1,311.3,956,1787.1,2872.2,222.4,72.2,10.2
0.111000,958.9,707.2,1813.5,295.7,2954.2,349.3,979.6,1793.9,2884.3,222.8,71.7,10.5
0.113000,1028.0,751.5,1822.1,321.4,2997.8,438.4,1004.6,1800.1,2896.4,223.3,71.3,10.8
0.115000,1103.7,792.8,1828.1,377.0,3026.6,528.8,1030.7,1805.6,2908.5,223.7,70.8,11.1
0.117000,1166.6,862.2,1815.3,427.4,3039.7,588.6,1057.6,1810.5,2920.6,224.1,70.3,14.7
0.119000,1196.4,1049.0,1779.2,433.6,3032.7,590.1,1084.8,1814.7,2932.7,224.4,69.7,21.6
0.121000,1147.7,1375.2,1756.1,380.1,3001.5,503.2,1112,1818.2,2944.8,224.8,69,26.8
0.123000,1049.8,1650.4,1770.8,326.3,2976.3,390.7,1138.8,1821.1,2956.8,225.1,68.3,25.2
0.125000,1011.2,1873.0,1792.7,281.7,2967.0,315.4,1164.8,1823.3,2968.7,225.4,67.4,11.8
0.127000,1108.6,2053.0,1796.8,248.4,2966.6,280.5,1189.7,1824.8,2980.7,225.7,66.5,-20.4
0.129000,1284.9,2026.6,1787.3,240.6,2971.6,267.7,1213,1825.8,2992.8,226,65.5,-67.8
0.131000,1389.1,1786.7,1776.2,272.7,2982.2,266.1,1234.5,1826.1,3004.9,226.2,64.4,-120.3
0.133000,1403.6,1426.1,1771.5,357.8,2998.4,275.7,1253.9,1825.9,3017.1,226.4,63.3,-167.8
0.135000,1383.9,1031.5,1783.2,488.2,3018.8,298.2,1270.9,1825.2,3029.5,226.6,62.2,-200
0.137000,1347.9,748.2,1814.0,587.2,3036.9,335.6,1285.3,1824,3042,226.8,61.1,-213.6
0.139000,1318.6,576.3,1850.2,640.2,3048.6,385.9,1297,1822.3,3054.9,227,60.1,-215.2
0.141000,1292.7,452.8,1889.7,673.4,3054.8,438.3,1305.9,1820.1,3068,227.1,59,-210.2
0.143000,1274.2,373.5,1900.7,690.6,3048.7,479.7,1311.9,1817.5,3081.5,227.2,58.3,-203.4
0.145000,1267.0,334.2,1874.0,676.6,3024.9,506.3,1315.1,1814.5,3095.4,0,57.5,-200
0.147000,1265.6,333.2,1834.2,599.2,2999.9,525.3,1315.3,1811.1,3109.7,0,57.1,-200
0.149000,1261.0,357.0,1810.2,482.9,2997.6,570.4,1312.8,1807.3,3124.5,0,56.5,-200
0.151000,1248.7,381.7,1804.1,380.8,3038.7,634.4,1307.7,1803.2,3139.7,0,56.3,-200
0.153000,1226.9,372.6,1803.7,320.7,3107.2,631.7,1300,1798.7,3155.4,0,55.9,-200
0.155000,1206.1,323.6,1802.9,309.3,3157.9,552.8,1290.1,1793.8,3171.6,0,55.8,-200
0.157000,1205.5,268.7,1805.1,363.2,3183.0,473.1,1278.1,1788.7,3188.3,0,55.6,-200
0.159000,1226.8,226.5,1819.0,474.9,3203.5,432.3,1264.2,1783.2,3205.4,0,55.4,-200
0.161000,1250.9,197.1,1836.5,551.7,3234.9,419.4,1248.8,1777.5,3222.9,0,55.3,-200
0.163000,1256.5,190.8,1815.6,520.5,3271.5,409.5,1232.1,1771.5,3240.8,0,55.2,-200
0.165000,1239.7,201.7,1762.9,435.2,3305.6,394.4,1214.4,1765.2,3259,0,55.2,-200
0.167000,1211.6,217.7,1715.6,351.3,3335.0,377.4,1195.9,1758.8,3277.4,0,55.1,-200
0.169000,1188.7,239.5,1690.2,303.1,3361.7,360.2,1176.9,1752.2,3295.9,0,54.9,-200
0.171000,1178.9,279.7,1681.3,298.5,3386.6,327.6,1157.7,1745.5,3314.5,0,54.6,-200
0.173000,1182.9,332.7,1679.6,330.7,3399.3,272.8,1138.5,1738.6,3333,0,54.2,-200
0.175000,1185.3,377.4,1681.4,373.6,3399.5,221.3,1119.5,1731.8,3351.3,0,53.8,-200
0.177000,1160.4,404.8,1692.0,380.0,3397.3,193.4,1101,1725,3369.3,0,53.3,-200
0.179000,1106.6,417.9,1712.4,340.7,3400.0,195.4,1083.1,1718.2,3386.8,0,52.9,-200
0.181000,1052.1,419.1,1731.8,300.4,3411.7,238.2,1066.1,1711.7,3403.7,0,52.3,-200
0.183000,1027.2,428.9,1739.5,304.3,3433.8,322.6,1050,1705.3,3419.9,0,51.9,-200
0.185000,1026.3,453.0,1734.7,359.2,3456.5,401.4,1034.9,1699.2,3435.2,0,51.3,-200
0.187000,1036.1,485.4,1716.5,448.6,3465.5,416.4,1021.1,1693.4,3449.6,0,50.9,-200
0.189000,1057.0,532.8,1683.2,555.5,3482.3,420.2,1008.5,1688,3462.8,0,50.4,-200
0.191000,1085.5,584.9,1632.6,657.1,3521.4,468.2,997.3,1683.1,3474.8,0,50.1,-200
0.193000,1053.4,564.5,1601.4,634.0,3561.6,562.3,987.5,1678.8,3485.4,0,50,-200
0.195000,968.3,391.8,1629.4,512.3,3570.4,684.6,979.2,1675,3494.6,0,50,-200
0.197000,921.0,224.8,1673.4,443.0,3565.4,671.8,972.3,1671.8,3502.2,0,50.3,-200
0.199000,906.5,138.8,1709.1,441.5,3571.9,539.1,966.9,1669.3,3508.3,0,50.6,-200
0.201000,907.6,103.8,1720.5,472.5,3448.7,2453.6,963.1,1667.5,3512.6,0,50.6,-200
0.203000,916.8,98.5,1709.8,490.6,3265.5,2201.6,960.8,1666.4,3515.2,0,50.1,-200
0.205000,936.6,116.8,1707.1,498.7,3312.9,1993.0,960,1666,3516.1,0,49.1,-200
