time,f1,b1,f2,b2,f3,b3,f1p,f2p,f3p,f0,intensity,harmonicity
0.026000,817.8,99.1,1843.7,327.2,3101.2,363.0,864.4,1808.2,3013.9,217.5,81.7,15
0.028000,827.4,97.7,1830.5,331.5,3096.8,389.4,864.2,1806.2,3011.9,217.6,81.6,16.5
0.030000,836.5,96.3,1817.9,337.4,3076.0,435.4,863.8,1803.1,3008.8,217.6,81.6,17.8
0.032000,845.5,95.1,1803.7,335.1,3034.5,471.8,863.4,1798.7,3004.3,217.7,81.6,18.8
0.034000,854.7,94.3,1786.1,311.8,2986.4,460.2,863.1,1793.4,2998.8,217.8,81.5,19.6
0.036000,862.8,94.8,1770.2,275.3,2953.4,415.2,862.8,1787.1,2992.1,217.9,81.5,20.1
0.038000,869.8,97.6,1758.1,241.2,2931.5,374.1,862.8,1780.1,2984.5,218.1,81.4,20.2
0.040000,875.4,102.5,1750.4,220.0,2916.1,353.1,863.1,1772.5,2976,218.2,81.3,20.1
0.042000,880.6,108.7,1745.1,208.2,2905.7,342.6,863.9,1764.6,2966.7,218.3,81.3,19.8
0.044000,886.5,115.9,1741.2,202.5,2902.2,335.2,865.2,1756.5,2956.8,218.5,81.2,19.6
0.046000,892.1,124.2,1738.6,203.3,2906.4,335.5,867.2,1748.5,2946.3,218.6,81.1,19.6
0.048000,895.7,135.9,1736.7,215.1,2920.1,353.2,869.9,1740.6,2935.5,218.8,81,19.6
0.050000,896.5,149.0,1735.0,239.0,2938.3,387.7,873.4,1733.1,2924.4,218.9,80.9,19.6
0.052000,897.0,160.0,1732.2,269.9,2945.1,435.2,877.8,1726.2,2913.3,219.1,80.8,19.7
0.054000,899.9,167.6,1727.0,298.3,2925.7,487.6,883,1719.9,2902.2,219.3,80.7,19.8
0.056000,905.6,171.3,1720.4,308.7,2886.2,514.3,889,1714.3,2891.2,219.5,80.6,19.9
0.058000,913.2,171.7,1713.5,295.0,2845.1,501.6,895.7,1709.7,2880.6,219.7,80.5,20.2
0.060000,920.9,169.3,1708.6,267.2,2824.4,464.5,903.1,1705.9,2870.4,219.9,80.4,20.4
0.062000,928.0,166.2,1706.1,238.6,2824.7,419.1,911,1703,2860.7,220.1,80.4,20.7
0.064000,934.2,164.8,1704.4,215.6,2832.3,371.2,919.4,1701,2851.7,220.3,80.3,21
0.066000,938.7,166.4,1701.9,201.9,2832.3,332.8,927.9,1699.8,2843.4,220.6,80.2,21.3
0.068000,941.4,171.4,1698.9,196.8,2827.7,309.5,936.4,1699.4,2836,220.8,80.1,21.8
0.070000,942.1,177.8,1698.1,201.2,2830.9,306.1,944.7,1699.7,2829.4,221.1,80,22.3
0.072000,941.5,183.0,1700.4,214.6,2844.7,316.1,952.6,1700.5,2823.8,221.3,79.8,22.7
0.074000,940.5,186.0,1704.3,237.0,2862.3,330.8,959.9,1701.8,2819.1,221.6,79.7,22.9
0.076000,940.0,187.4,1707.3,264.6,2871.4,339.9,966.3,1703.3,2815.5,221.9,79.6,22.8
0.078000,940.7,188.8,1707.7,293.2,2866.3,334.5,971.7,1705,2812.8,222.1,79.5,22
0.080000,942.3,191.0,1705.6,311.8,2851.4,313.3,975.9,1706.7,2811.1,222.4,79.3,21.1
0.082000,945.3,193.1,1704.6,313.9,2835.4,285.4,978.7,1708.3,2810.4,222.7,79.2,20.2
0.084000,950.9,192.8,1708.5,300.7,2822.7,262.1,980.1,1709.7,2810.6,223,79.1,19.7
0.086000,957.6,188.9,1714.9,283.1,2814.7,251.9,980.1,1710.8,2811.7,223.4,78.9,19.9
0.088000,963.0,184.4,1719.6,271.1,2811.5,257.8,978.5,1711.5,2813.6,223.7,78.8,21
0.090000,964.6,184.4,1720.6,272.1,2816.0,282.2,975.4,1711.8,2816.3,224,78.7,22.5
0.092000,963.0,189.6,1719.4,282.2,2827.4,321.0,970.9,1711.7,2819.7,224.3,78.6,23.9
0.094000,958.9,199.0,1717.0,295.9,2839.5,364.1,965.2,1711.2,2823.7,224.7,78.4,24.7
0.096000,953.4,211.0,1712.9,310.0,2842.6,400.2,958.3,1710.3,2828.3,225,78.2,24.4
0.098000,947.0,225.0,1706.6,326.1,2833.6,432.5,950.6,1709.2,2833.3,225.4,78.1,22.9
0.100000,941.1,237.6,1699.8,342.2,2819.8,458.7,942.2,1707.9,2838.8,225.8,77.9,20.8
0.102000,936.6,246.7,1694.2,355.3,2814.0,476.6,933.4,1706.5,2844.5,226.2,77.7,18.6
0.104000,935.1,250.0,1691.4,356.5,2822.2,476.3,924.6,1705.1,2850.6,226.5,77.5,17
0.106000,937.8,244.9,1691.1,333.8,2833.2,445.0,916,1704,2856.8,226.9,77.3,16.4
0.108000,942.8,231.6,1691.4,289.4,2837.3,388.3,908,1703.3,2863.2,227.3,77.1,16.7
0.110000,945.9,215.8,1692.2,244.2,2838.7,333.4,900.9,1703,2869.7,227.7,76.9,17.5
0.112000,944.5,202.7,1694.5,209.8,2843.6,292.4,894.9,1703.5,2876.3,228.1,76.7,18.3
0.114000,938.7,195.6,1698.6,189.8,2849.2,265.3,890.4,1704.8,2883,228.5,76.5,19
0.116000,931.3,195.5,1703.6,185.3,2850.3,250.0,887.6,1707,2889.7,228.9,76.3,19.1
0.118000,923.8,200.7,1709.0,192.7,2853.7,244.6,886.6,1710.3,2896.4,229.3,76,18.8
0.120000,917.0,208.4,1713.9,206.4,2871.3,251.2,887.7,1714.6,2903.1,229.7,75.7,18.4
0.122000,910.8,214.2,1718.7,219.2,2904.5,262.0,890.9,1720.1,2910,230.1,75.3,17.8
0.124000,905.3,217.8,1726.1,230.2,2943.1,263.1,896.3,1726.8,2916.9,230.5,75,17.2
0.126000,899.1,225.0,1740.3,248.8,2970.6,257.9,903.8,1734.5,2923.9,230.9,74.5,16.6
0.128000,891.0,236.6,1767.8,277.2,2985.4,260.5,913.4,1743.3,2931.1,231.3,74.1,15.8
0.130000,882.6,243.8,1802.9,291.6,2991.4,275.4,924.9,1753,2938.5,231.7,73.7,14.9
0.132000,876.4,248.2,1829.6,284.8,2995.4,301.3,938.2,1763.5,2946.1,232.1,73.3,14
0.134000,876.6,258.9,1838.2,279.2,2997.4,340.7,952.9,1774.6,2954.1,232.5,72.9,13.3
0.136000,885.8,288.5,1828.0,294.4,2990.4,383.0,968.8,1786.2,2962.3,232.9,72.5,12.9
0.138000,908.8,355.9,1797.2,316.7,2975.7,369.4,985.6,1797.9,2971,233.3,72.1,12.8
0.140000,947.8,440.4,1761.9,304.5,2974.8,289.1,1002.9,1809.7,2980,233.7,71.7,12.8
0.142000,999.9,499.6,1742.8,274.0,2987.8,221.5,1020.3,1821.1,2989.5,234.1,71.2,12.9
0.144000,1048.6,518.3,1741.3,253.2,3005.5,184.8,1037.6,1832.1,2999.5,234.5,70.7,12.9
0.146000,1077.9,526.2,1756.1,255.2,3019.9,179.8,1054.3,1842.3,3009.9,234.9,70.2,12.8
0.148000,1096.2,539.4,1797.2,282.0,3028.4,209.9,1070,1851.6,3020.9,235.3,69.6,12.7
0.150000,1107.1,532.4,1862.6,306.0,3033.0,265.4,1084.5,1859.7,3032.3,235.7,69,12.5
0.152000,1118.2,493.1,1919.6,303.3,3041.0,301.7,1097.5,1866.4,3044.2,236.1,68.4,12.3
0.154000,1138.5,428.2,1937.6,290.0,3045.7,283.2,1108.7,1871.7,3056.4,236.5,67.8,11.8
0.156000,1155.6,363.2,1921.4,270.4,3042.2,242.6,1117.9,1875.5,3069.1,236.9,67.2,12
0.158000,1162.0,307.1,1891.3,232.6,3041.2,212.8,1125.1,1877.6,3082.1,237.3,66.7,16.3
0.160000,1161.8,267.0,1868.0,190.9,3053.8,205.6,1130,1878,3095.2,237.7,66.2,21.2
0.162000,1161.9,241.3,1856.4,157.1,3083.3,206.6,1132.8,1876.9,3108.6,238.1,65.7,22
0.164000,1164.3,231.1,1854.3,131.8,3117.2,190.1,1133.5,1874.2,3122,238.6,65.1,14.1
0.166000,1165.6,242.3,1857.6,115.7,3133.3,158.2,1132.2,1870.1,3135.3,239,64.5,-8
0.168000,1157.7,279.7,1863.1,107.3,3137.5,131.8,1129.1,1864.8,3148.4,239.3,63.8,-48
0.170000,1132.8,330.9,1870.4,108.1,3142.5,123.0,1124.3,1858.4,3161.3,239.7,62.9,-97.7
0.172000,1096.9,366.0,1881.3,120.5,3153.9,131.7,1118.3,1851.1,3173.7,240.1,62,-147.2
0.174000,1073.1,368.6,1892.1,147.1,3171.6,159.7,1111.1,1843.2,3185.5,240.5,61,-186.9
0.176000,1069.9,373.2,1885.2,179.8,3190.1,205.5,1103.3,1835,3196.7,0,60,-208.3
0.178000,1070.6,410.4,1846.8,207.2,3213.0,258.9,1095.1,1826.7,3207.1,0,59.2,-215.1
0.180000,1060.5,443.7,1798.9,210.7,3243.7,265.4,1086.8,1818.6,3216.6,0,58.7,-212.8
0.182000,1051.5,422.5,1771.7,204.3,3264.4,225.0,1078.9,1811,3225.1,0,58.6,-206.5
0.184000,1060.9,375.4,1769.0,209.7,3268.7,193.3,1071.5,1804.1,3232.4,0,58.6,-200.9
0.186000,1080.5,342.4,1777.4,226.2,3263.5,187.2,1065.1,1798.1,3238.6,0,58.8,-200
0.188000,1095.5,325.7,1787.3,251.9,3252.1,206.0,1059.8,1793.3,3243.4,0,58.9,-200
0.190000,1086.5,323.5,1791.8,280.3,3238.8,249.5,1055.9,1789.7,3246.9,0,58.7,-200
0.192000,1049.3,323.8,1790.2,304.6,3232.8,306.4,1053.5,1787.5,3249.1,0,58.1,-200
0.194000,1006.0,320.2,1788.8,321.8,3245.0,343.1,1052.7,1786.7,3249.8,0,57.4,-200
