time,f1,b1,f2,b2,f3,b3,f1p,f2p,f3p,f0,intensity,harmonicity
0.026000,769.6,73.7,1952.7,458.8,3792.4,2824.9,781.1,1955.7,3835.5,221,73.4,15.9
0.028000,778.7,75.7,1963.5,378.7,4118.4,1636.9,785.7,1958.3,3869.5,220.6,73.1,15.9
0.030000,790.9,76.1,1971.1,292.1,4005.5,1300.4,792.9,1962.3,3920.4,220,72.8,15.8
0.032000,805.4,76.4,1973.8,238.3,3967.4,1182.5,802.4,1966.8,3980.2,219.4,72.5,15.5
0.034000,820.7,76.5,1972.5,215.0,3931.3,1203.4,813.4,1971.1,4039,218.7,72.2,15.2
0.036000,835.3,75.7,1969.1,205.2,3877.7,1265.6,825.3,1974.2,4085.4,217.9,71.9,14.7
0.038000,846.0,74.2,1965.6,194.1,3855.5,1274.4,837.1,1975.1,4108.5,217,71.6,14.1
0.040000,853.7,72.1,1961.8,174.1,3897.4,1215.5,848.2,1973,4098.3,216,71.3,13.2
0.042000,860.0,68.7,1956.2,154.1,3965.1,1114.3,857.8,1967.1,4047.2,214.8,71.1,12.5
0.044000,864.9,64.0,1948.1,147.6,4019.6,1062.1,865.4,1956.9,3950.3,213.6,70.9,12.1
0.046000,867.6,60.4,1936.6,166.6,4083.7,1074.2,870.5,1942.2,3806.5,212.2,70.9,12.1
0.048000,866.9,61.0,1922.4,228.4,4181.9,1021.5,873,1922.9,3618.8,210.6,70.9,12.7
0.050000,863.7,66.4,1903.0,369.4,3906.0,3563.0,872.8,1899.6,3393.3,208.8,70.9,13.6
0.052000,859.8,74.6,1877.5,587.9,3168.0,4135.5,870.1,1872.9,3140.1,206.9,71,14.5
0.054000,858.2,81.6,1863.3,726.5,2484.6,3752.5,865.2,1843.7,2871.3,204.9,71.1,15
0.056000,858.5,87.5,1881.8,698.7,2305.7,3609.8,858.6,1813.2,2600.8,202.6,71.2,15
0.058000,858.0,93.4,1906.2,631.2,1914.9,3642.3,850.9,1782.5,2343.1,200.1,71.2,14.3
0.060000,854.4,99.6,1636.4,3194.1,1916.2,575.7,842.8,1752.9,2111.8,197.5,71.2,13.2
0.062000,847.0,104.5,1615.7,3245.7,1896.7,524.9,834.9,1725.5,1918.9,194.6,71.2,12.1
0.064000,836.4,108.7,1690.4,3528.7,1859.0,472.9,827.8,1701.5,1773.5,191.6,71.2,11.3
0.066000,823.5,114.5,1686.5,3166.1,1819.4,428.3,822.1,1681.6,1681.5,188.5,71.1,11
0.068000,812.1,120.8,1638.5,2552.3,1787.5,406.3,818.1,1666.5,1645.2,185.1,71.1,11.2
0.070000,804.2,125.2,1639.1,2231.7,1755.4,396.0,816,1656.2,1662.8,181.7,71.1,11.7
0.072000,803.3,126.4,1694.5,2390.5,1720.2,368.4,816.1,1651,1729,178.1,71,12.1
0.074000,809.4,125.3,1695.3,327.7,1786.4,3011.2,818.2,1650.5,1835.7,174.4,71,12
0.076000,819.3,122.2,1683.7,302.1,2001.3,3882.6,822.2,1654.2,1972.7,170.6,70.9,11.2
0.078000,829.1,118.3,1680.9,302.8,2325.2,3716.0,827.7,1661.4,2128.2,166.8,70.8,9.6
0.080000,839.6,114.5,1680.6,320.0,2350.0,2979.6,834.4,1671.4,2290.7,0,70.8,7.5
0.082000,852.2,110.2,1679.8,339.0,2381.3,2633.4,841.7,1683.2,2449.3,159.2,70.8,5.5
0.084000,864.0,102.6,1679.9,354.8,2476.3,2630.6,849.4,1696,2594.6,155.4,70.8,3.9
0.086000,869.9,91.2,1684.7,366.9,2695.3,2774.9,856.9,1709.1,2720,151.7,70.9,3.1
0.088000,869.6,80.4,1699.5,359.2,2931.3,2680.2,863.8,1721.7,2821.3,148.1,70.9,2.9
0.090000,866.5,71.8,1723.2,316.4,3047.0,2574.5,869.8,1733.5,2897.3,144.6,70.9,3.1
0.092000,864.0,67.3,1742.4,258.5,3065.4,2742.5,874.8,1744,2949.7,141.2,70.8,3.6
0.094000,865.5,66.1,1753.6,219.5,2882.2,3315.8,878.5,1753,2982.3,138,70.6,4.3
0.096000,870.5,64.7,1763.3,199.5,2443.0,3639.7,880.9,1760.6,3000.8,135,70.5,5.3
0.098000,873.7,62.9,1770.7,189.1,2595.2,3468.3,882.1,1766.8,3011.9,132.2,70.3,6.8
0.100000,875.4,63.8,1774.9,190.0,3031.1,2766.4,882.2,1771.8,3022.1,129.5,70.2,8.7
0.102000,878.7,70.0,1777.1,215.9,3231.3,2226.7,881.3,1775.8,3037.5,127.1,70.2,10.3
0.104000,884.2,76.2,1779.4,260.9,3319.5,2183.6,879.7,1779.2,3062.9,124.8,70.1,11.4
0.106000,886.8,77.1,1784.1,300.2,3369.3,2600.1,877.6,1782,3101,122.8,70,11.4
0.108000,884.5,74.8,1790.6,320.6,3279.8,3390.6,875.1,1784.6,3152.7,120.9,69.9,10.4
0.110000,879.2,72.7,1796.4,332.9,3150.8,3604.2,872.5,1787,3216.4,119.3,69.8,8.8
0.112000,874.8,71.7,1798.9,337.6,3469.4,2795.7,870,1789.2,3288.8,117.8,69.9,6.9
0.114000,875.0,71.7,1799.0,316.8,3480.4,1953.4,867.6,1791.3,3364.8,0,70.1,5.3
0.116000,876.1,74.2,1796.2,268.6,3440.1,1565.0,865.6,1793.3,3438.8,0,70.5,4.1
0.118000,872.8,80.2,1790.2,217.9,3426.5,1393.3,863.9,1794.9,3504.4,0,71,3.1
0.120000,862.9,86.0,1785.5,175.5,3437.7,1369.3,862.7,1796.2,3555.9,0,71.5,2.2
0.122000,849.8,86.5,1787.4,148.7,3469.0,1449.7,861.9,1797,3588.9,0,71.8,1.5
0.124000,838.3,82.8,1794.1,133.9,3505.4,1558.9,861.7,1797.2,3600.2,0,71.8,0.9
