time,f1,b1,f2,b2,f3,b3,f1p,f2p,f3p,f0,intensity,harmonicity
0.025000,933.7,112.1,1610.3,136.7,2968.4,438.6,975.5,1611.5,2944.2,194.2,71.4,11.2
0.027000,937.4,111.8,1615.1,137.7,2971.7,435.9,973,1613.1,2945.2,194,71.5,11.7
0.029000,940.8,110.6,1619.3,136.9,2959.2,399.7,968.9,1615.8,2946.9,193.9,71.6,11.7
0.031000,943.3,110.4,1623.4,138.5,2947.3,354.8,963.7,1619.3,2949,193.7,71.6,11.5
0.033000,945.0,111.3,1627.9,142.9,2940.1,323.8,957.5,1623.6,2951.7,193.5,71.6,11.4
0.035000,946.2,112.9,1633.0,146.9,2935.1,306.1,950.9,1628.5,2954.6,193.3,71.5,11.5
0.037000,947.4,115.3,1638.1,150.3,2934.4,301.5,944.2,1633.6,2957.7,193.1,71.4,12.1
0.039000,949.3,118.4,1641.8,153.2,2940.6,313.0,938,1638.9,2960.7,193,71.3,12.8
0.041000,952.9,121.5,1644.5,155.7,2953.5,338.6,932.7,1644.1,2963.6,192.8,71.1,13.6
0.043000,957.7,124.2,1646.7,157.3,2969.4,369.6,928.7,1648.9,2966.2,192.7,71,14.4
0.045000,961.6,126.0,1648.8,157.8,2980.6,390.5,926.4,1653.2,2968.4,192.6,70.8,15
0.047000,964.1,127.9,1650.7,157.2,2981.0,388.6,926.2,1656.8,2970.1,192.6,70.6,15.4
0.049000,965.7,130.3,1652.3,156.6,2973.8,367.4,928.1,1659.6,2971.3,192.6,70.3,15.8
0.051000,967.5,133.2,1653.5,157.2,2966.0,342.3,932.3,1661.4,2971.9,192.6,70.1,16.1
0.053000,969.3,136.2,1653.7,159.5,2961.3,324.4,938.7,1662.2,2971.9,192.7,69.9,16.2
0.055000,970.9,138.6,1653.3,162.6,2960.0,317.5,947.2,1662.1,2971.5,192.8,69.7,15.9
0.057000,972.8,139.8,1653.6,164.6,2962.3,321.5,957.6,1661.1,2970.7,192.9,69.5,15.2
0.059000,975.7,140.4,1655.1,163.6,2967.8,329.9,969.3,1659.4,2969.7,193.2,69.3,14
0.061000,980.5,141.3,1656.6,159.8,2975.6,334.5,982.1,1657,2968.6,193.5,69.1,12.6
0.063000,987.6,143.2,1656.3,155.0,2983.0,331.8,995.4,1654.1,2967.7,193.8,68.8,11.3
0.065000,996.5,146.0,1653.5,151.4,2985.4,324.9,1008.7,1651.1,2967.1,194.3,68.6,10.2
0.067000,1005.1,148.2,1650.2,148.7,2980.4,321.0,1021.5,1648.1,2967,194.8,68.4,9.7
0.069000,1012.1,149.6,1647.8,145.1,2970.6,325.3,1033.3,1645.3,2967.7,195.3,68.1,9.5
0.071000,1016.7,150.6,1646.7,140.5,2961.1,337.7,1043.6,1643.1,2969.4,196,67.8,9.3
0.073000,1019.1,151.9,1647.0,136.8,2957.6,354.0,1052,1641.7,2972.1,196.7,67.5,9
0.075000,1020.8,154.8,1649.8,136.1,2962.4,369.2,1058.4,1641.2,2976.1,197.5,67.1,8.3
0.077000,1023.9,159.3,1656.1,137.2,2970.7,380.4,1062.5,1641.9,2981.3,198.3,66.7,7
0.079000,1028.0,163.6,1663.6,136.6,2975.6,391.8,1064.4,1643.8,2987.9,199.2,66.2,5.2
0.081000,1030.7,167.8,1668.9,135.1,2984.1,408.9,1064.2,1647.1,2995.9,200.2,65.7,3.3
0.083000,1030.1,174.6,1669.8,136.8,3008.4,415.6,1062.1,1651.9,3005.1,201.2,65.1,1.7
0.085000,1026.7,187.4,1665.7,146.4,3044.5,396.0,1058.5,1658,3015.5,202.2,64.4,0.6
0.087000,1023.2,211.0,1657.3,167.7,3075.5,359.8,1054,1665.4,3026.9,203.3,63.8,0.4
0.089000,1025.0,244.1,1649.9,198.1,3088.5,329.6,1049,1674,3039.1,204.5,63.1,0.7
0.091000,1037.7,279.1,1649.5,234.1,3085.9,318.5,1044.2,1683.6,3051.9,205.6,62.4,1.4
0.093000,1061.3,300.2,1660.4,269.3,3072.3,337.5,1040.2,1694,3065,206.7,61.8,2
0.095000,1091.7,305.9,1684.3,298.8,3054.4,385.9,1037.7,1705,3078.3,207.9,61.1,2.3
0.097000,1122.6,307.2,1713.9,311.9,3044.8,429.8,1037.2,1716.2,3091.4,209,60.5,2
0.099000,1152.1,313.0,1739.2,308.9,3050.2,436.6,1039.3,1727.5,3104.1,210.1,60.1,1.4
0.101000,1168.5,323.5,1751.6,308.5,3065.8,407.9,1044.4,1738.6,3116.2,211.2,59.7,0.9
0.103000,1156.7,316.1,1755.9,335.4,3085.9,367.7,1052.7,1749.1,3127.6,212.2,59.6,0.6
0.105000,1132.9,266.4,1768.4,399.9,3113.4,327.6,1064.3,1758.9,3137.9,213.2,59.7,1.1
0.107000,1114.3,208.2,1787.4,450.0,3147.7,286.2,1079.3,1767.7,3147.2,214.1,59.9,2.6
0.109000,1101.8,178.0,1787.1,410.3,3176.1,248.0,1097.3,1775.3,3155.4,215,60,5
0.111000,1092.8,166.1,1772.2,322.5,3192.2,223.2,1117.9,1781.6,3162.4,215.7,60.1,7.6
0.113000,1088.3,161.2,1762.4,243.3,3193.9,215.6,1140.7,1786.5,3168.4,216.4,60,9.9
0.115000,1090.5,161.6,1764.3,188.5,3184.5,219.3,1164.9,1790,3173.4,217.1,59.8,11.3
0.117000,1101.1,168.8,1773.8,150.9,3179.6,217.3,1189.7,1791.9,3177.5,217.6,59.6,15
0.119000,1117.2,183.7,1783.2,128.2,3195.5,199.6,1214.3,1792.5,3181,218.1,59.2,21.2
0.121000,1135.5,210.6,1789.4,118.8,3217.0,181.3,1237.6,1791.7,3183.9,218.5,58.9,25.4
0.123000,1156.5,262.9,1793.7,128.4,3228.1,178.8,1258.7,1789.7,3186.6,218.8,58.5,22.8
0.125000,1187.4,357.9,1799.4,163.9,3225.2,199.0,1276.8,1786.6,3189.3,219.1,58,8.9
0.127000,1237.9,494.3,1808.5,217.6,3212.7,238.6,1291,1782.6,3192.1,219.3,57.5,-23
0.129000,1288.0,604.0,1814.6,237.9,3198.0,272.3,1300.7,1777.9,3195.3,219.5,57,-69.8
0.131000,1307.5,616.0,1812.5,209.5,3178.7,273.7,1305.3,1772.7,3199,219.6,56.4,-121.6
0.133000,1302.2,553.4,1802.9,175.2,3161.0,247.2,1304.4,1767.1,3203.4,219.6,55.8,-168.3
0.135000,1299.3,530.4,1788.6,167.1,3153.2,237.2,1297.8,1761.4,3208.5,219.7,55.1,-200
0.137000,1312.7,597.5,1774.2,198.9,3163.9,264.0,1285.8,1755.6,3214.3,219.7,54.5,-213.4
0.139000,1342.4,710.5,1757.2,272.7,3197.6,290.2,1268.4,1750.1,3221,219.6,53.7,-215
0.141000,1374.6,775.5,1735.5,390.4,3234.1,274.8,1246.3,1744.8,3228.3,219.6,52.9,-210
0.143000,1386.5,796.2,1704.0,518.3,3254.1,236.2,1220.2,1739.9,3236.2,219.5,52.1,-203.3
0.145000,1345.6,891.1,1669.3,515.6,3259.8,197.8,1190.8,1735.4,3244.6,219.5,51.4,-200
0.147000,1258.6,960.4,1666.0,415.2,3261.5,160.5,1159.3,1731.4,3253.2,219.4,50.9,-200
0.149000,1216.3,973.8,1667.0,338.6,3266.4,131.5,1126.8,1727.9,3261.9,219.4,50.3,-200
0.151000,1165.7,987.5,1666.4,281.0,3272.6,113.3,1094.3,1724.9,3270.3,219.3,49.9,-200
0.153000,1038.3,857.8,1678.5,230.1,3276.6,104.1,1063.2,1722.4,3278.2,219.3,49.5,-200
0.155000,943.1,556.4,1707.2,183.8,3279.8,100.3,1034.6,1720.4,3285.4,219.3,48.9,-200
0.157000,906.4,332.4,1741.4,140.0,3287.4,99.1,1009.5,1718.8,3291.7,219.2,48.6,-200
0.159000,895.9,221.2,1761.6,107.8,3299.3,98.1,989,1717.7,3296.8,219.2,47.8,-200
0.161000,901.1,166.5,1766.9,90.3,3309.5,96.7,973.7,1716.8,3300.6,219.2,47.4,-200
0.163000,912.8,136.8,1764.4,86.5,3313.2,96.9,964.3,1716.4,3302.9,219.2,46.7,-200
0.165000,921.2,118.6,1760.4,93.7,3309.1,102.2,961.1,1716.2,3303.7,219.2,46.1,-200
