time,f1,b1,f2,b2,f3,b3,f1p,f2p,f3p,f0,intensity,harmonicity
0.025000,777.7,124.8,1483.5,303.5,3084.2,294.3,803.2,1498.5,3092.1,222,80.8,21.1
0.027000,786.1,130.5,1464.7,343.2,3074.9,304.8,804.7,1497.7,3090.2,221.9,80.7,21.3
0.029000,795.1,135.0,1457.3,366.3,3068.6,326.4,807.2,1496.3,3087.1,221.8,80.7,21.3
0.031000,806.1,135.9,1467.9,366.3,3065.8,357.8,810.7,1494.4,3082.8,221.7,80.7,21.2
0.033000,817.2,133.1,1485.7,347.6,3063.0,389.7,815,1492.1,3077.5,221.6,80.6,21.1
0.035000,827.5,128.9,1498.1,323.4,3057.1,418.5,820.2,1489.5,3071.4,221.5,80.6,21.2
0.037000,836.3,126.9,1500.6,306.1,3053.5,448.4,826,1486.5,3064.5,221.5,80.6,21.4
0.039000,842.9,129.5,1495.9,300.9,3062.2,481.3,832.5,1483.5,3057.1,221.4,80.6,21.6
0.041000,848.6,135.3,1488.7,300.8,3080.8,510.7,839.4,1480.3,3049.4,221.3,80.5,21.9
0.043000,853.8,140.8,1482.0,298.9,3090.5,514.3,846.7,1477.3,3041.6,221.2,80.5,22.2
0.045000,859.2,144.0,1476.7,293.6,3081.8,481.5,854.3,1474.4,3033.9,221.2,80.5,22.5
0.047000,865.5,145.4,1473.9,286.5,3062.1,420.5,862,1471.9,3026.5,221.1,80.4,22.8
0.049000,872.2,146.9,1474.3,282.1,3046.0,365.2,869.8,1469.7,3019.5,221.1,80.4,23.2
0.051000,880.1,149.9,1476.8,281.3,3034.6,328.9,877.4,1468.1,3013.2,221,80.3,23.6
0.053000,888.3,152.3,1479.9,279.8,3024.5,312.9,884.9,1467.1,3007.7,221,80.3,23.9
0.055000,896.6,152.3,1482.3,273.8,3012.5,311.2,892.2,1466.9,3003,221,80.2,24
0.057000,904.1,149.2,1484.0,262.8,3000.1,326.7,899.1,1467.4,2999.4,221,80.1,24
0.059000,909.8,144.2,1487.4,251.8,2993.3,367.6,905.7,1468.8,2996.8,221,80,23.9
0.061000,915.7,138.2,1495.8,245.4,2993.2,441.1,912,1471.1,2995.2,221,79.9,23.6
0.063000,922.0,131.8,1507.6,245.5,2991.7,516.1,917.8,1474.4,2994.7,221.1,79.8,23.4
0.065000,928.9,125.5,1518.4,250.8,2978.8,558.6,923.2,1478.6,2995.3,221.1,79.7,23.2
0.067000,934.7,122.1,1523.1,260.1,2955.5,572.2,928.3,1483.8,2996.8,221.2,79.6,22.9
0.069000,939.1,124.2,1522.3,275.0,2927.6,594.4,933.1,1489.8,2999.2,221.3,79.5,22.6
0.071000,942.2,133.4,1518.1,300.0,2906.3,643.1,937.6,1496.8,3002.4,221.4,79.4,22.3
0.073000,943.8,147.1,1511.3,332.7,2904.9,705.0,941.9,1504.6,3006.3,221.5,79.2,22.2
0.075000,944.5,161.0,1501.1,366.4,2921.0,761.5,946.1,1513.2,3010.7,221.6,79,22.1
0.077000,945.2,170.6,1488.8,391.9,2949.3,800.7,950.3,1522.5,3015.5,221.8,78.8,22.4
0.079000,946.9,172.8,1481.1,401.9,2987.5,820.6,954.6,1532.3,3020.6,222,78.7,22.9
0.081000,949.7,168.5,1484.5,399.0,3039.0,837.5,959,1542.7,3025.8,222.1,78.5,23.5
0.083000,953.3,161.2,1501.7,389.3,3093.4,878.2,963.7,1553.6,3031.1,222.3,78.2,23.9
0.085000,957.6,155.2,1526.7,381.6,3145.1,976.0,968.7,1564.7,3036.4,222.5,78,24
0.087000,962.5,153.1,1551.0,384.9,3181.7,1157.0,974.1,1576,3041.6,222.7,77.7,23.7
0.089000,967.6,155.9,1566.6,405.8,3169.9,1376.8,980,1587.5,3046.7,223,77.5,23.1
0.091000,973.0,163.2,1575.1,449.3,3126.1,1502.3,986.5,1599,3051.7,223.2,77.1,22.4
0.093000,978.2,173.9,1581.1,513.8,3134.5,1402.0,993.5,1610.5,3056.7,223.4,76.8,21.4
0.095000,984.6,190.9,1585.3,623.2,3121.3,1072.1,1001.1,1621.8,3061.7,223.6,76.4,20.3
0.097000,995.6,215.4,1591.4,794.2,3067.4,762.4,1009.3,1632.8,3066.7,223.8,75.9,18.7
0.099000,1013.3,239.1,1615.9,971.0,3029.3,570.8,1018,1643.7,3072,224.1,75.5,16.8
0.101000,1034.0,260.6,1660.9,1056.9,3017.1,464.1,1027.3,1654.1,3077.6,224.3,75,14.7
0.103000,1049.0,282.3,1699.7,1030.2,3021.3,406.7,1037,1664.3,3083.8,224.5,74.6,12.9
0.105000,1050.3,310.9,1727.7,897.9,3035.6,374.0,1047.1,1674,3090.6,224.7,74.1,11.4
0.107000,1037.5,350.6,1747.2,685.4,3055.1,372.4,1057.5,1683.3,3098.4,224.9,73.7,10.5
0.109000,1036.1,415.9,1755.6,507.4,3077.5,414.5,1068.1,1692.1,3107.2,225.1,73.2,10
0.111000,1075.5,502.1,1751.8,427.6,3110.1,463.5,1078.8,1700.6,3117.2,225.2,72.8,9.6
0.113000,1130.5,541.5,1746.5,393.7,3147.4,443.9,1089.3,1708.5,3128.5,225.4,72.3,9.5
0.115000,1164.8,544.3,1743.1,357.7,3176.9,371.2,1099.6,1716.1,3141.4,225.5,71.8,9.3
0.117000,1173.4,537.4,1740.4,311.9,3192.6,278.0,1109.6,1723.2,3155.7,225.6,71.2,12.7
0.119000,1171.9,526.3,1740.2,279.4,3197.4,202.0,1119,1729.9,3171.7,225.7,70.6,19.6
0.121000,1181.6,527.8,1744.9,284.8,3200.4,160.9,1127.8,1736.2,3189.2,225.8,69.8,25
0.123000,1193.5,522.8,1755.1,308.8,3201.7,155.1,1135.7,1742.1,3208.2,225.8,68.8,23.6
0.125000,1192.0,513.2,1763.6,322.7,3206.4,169.8,1142.8,1747.6,3228.5,225.8,67.9,10.3
0.127000,1179.9,518.9,1762.0,329.3,3223.3,187.1,1148.7,1752.7,3250.1,225.9,66.8,-21.6
0.129000,1163.4,548.5,1749.6,334.4,3250.3,182.5,1153.6,1757.4,3272.6,225.9,65.6,-68.7
0.131000,1137.8,624.5,1729.7,321.8,3268.8,158.9,1157.2,1761.7,3295.7,225.9,64.4,-120.9
0.133000,1089.7,724.3,1724.4,270.1,3273.1,148.1,1159.5,1765.6,3319,225.8,63.2,-168
0.135000,1031.6,744.4,1741.8,203.1,3273.7,158.9,1160.4,1769,3342.3,225.8,62,-200
0.137000,1009.4,630.4,1759.7,161.5,3279.3,188.0,1160,1772,3364.9,225.8,60.9,-213.5
0.139000,1020.8,500.8,1765.2,147.1,3297.6,234.5,1158.2,1774.4,3386.4,225.7,59.9,-215.1
0.141000,1047.6,441.3,1756.3,152.0,3334.3,290.5,1155,1776.3,3406.3,0,59.2,-210.1
0.143000,1078.6,434.2,1740.8,159.6,3377.0,323.2,1150.6,1777.6,3424.1,0,58.4,-203.4
0.145000,1104.1,433.1,1730.5,155.4,3408.7,328.1,1144.9,1778.2,3439.2,0,57.9,-200
0.147000,1124.2,427.8,1732.5,145.0,3429.9,340.9,1138,1778.2,3451.1,0,57.4,-200
0.149000,1159.4,426.7,1743.8,147.2,3459.8,388.2,1130.1,1777.4,3459.3,0,57,-200
0.151000,1215.4,391.8,1762.3,162.7,3526.3,453.6,1121.2,1775.9,3463.5,0,56.7,-200
0.153000,1244.1,315.1,1781.3,166.7,3618.4,453.5,1111.4,1773.5,3463.1,0,56.5,-200
0.155000,1237.7,249.6,1791.1,154.1,3675.8,363.7,1101,1770.3,3457.8,0,56.3,-200
0.157000,1216.4,216.2,1789.9,138.1,3673.4,281.3,1090,1766.3,3447.5,0,56.2,-200
0.159000,1186.3,205.3,1781.4,124.2,3633.4,221.6,1078.6,1761.4,3431.8,0,55.8,-200
0.161000,1141.4,205.9,1771.2,115.4,3571.9,170.6,1066.8,1755.6,3410.8,0,55.5,-200
0.163000,1089.3,193.5,1766.1,114.5,3521.4,130.8,1054.9,1749,3384.4,0,55.2,-200
0.165000,1048.1,163.9,1762.8,130.9,3493.6,108.3,1043,1741.6,3352.8,0,54.9,-200
0.167000,1027.5,145.7,1749.6,178.9,3485.7,108.0,1031.2,1733.4,3316.3,0,54.7,-200
0.169000,1011.7,147.9,1715.5,254.3,3489.7,132.7,1019.7,1724.6,3275.1,0,54.6,-200
0.171000,986.3,158.0,1681.8,283.2,2705.8,4375.5,1008.4,1715.1,3229.7,0,54.5,-200
0.173000,952.7,158.4,1684.4,239.2,2710.1,2735.1,997.6,1705.1,3180.7,0,54.2,-200
0.175000,920.4,155.5,1702.7,187.6,2755.2,2144.5,987.2,1694.7,3128.7,0,53.9,-200
0.177000,901.1,161.2,1718.4,164.7,2800.8,1934.2,977.5,1684.1,3074.3,0,53.6,-200
0.179000,892.6,170.8,1729.3,164.7,2814.2,1906.9,968.3,1673.2,3018.5,0,53.3,-200
0.181000,891.1,166.0,1734.7,179.0,2852.0,2058.3,959.8,1662.4,2961.9,0,53,-200
0.183000,893.4,147.8,1726.5,208.5,2927.9,2242.9,952,1651.7,2905.5,0,52.9,-200
0.185000,895.9,134.7,1696.7,263.0,2940.7,2171.9,944.9,1641.3,2850.2,0,52.9,-200
0.187000,896.5,132.6,1655.2,327.4,2890.6,1894.0,938.5,1631.3,2796.9,0,52.8,-200
0.189000,896.6,136.7,1619.4,388.5,2859.3,1647.7,932.9,1622,2746.4,0,52.6,-200
0.191000,897.8,145.0,1587.2,447.8,2824.2,1433.8,927.9,1613.3,2699.5,0,52.2,-200
0.193000,903.1,160.9,1538.1,491.8,2760.1,1201.7,923.7,1605.5,2657.1,0,51.7,-200
0.195000,917.9,189.3,1470.7,508.5,2681.0,987.5,920.1,1598.7,2620,0,51.1,-200
0.197000,943.8,216.7,1432.3,538.4,2613.4,922.0,917.2,1592.9,2588.6,0,50.4,-200
0.199000,977.3,222.5,1456.4,646.5,2555.4,1071.1,915,1588.3,2563.7,0,49.7,-200
0.201000,998.1,207.7,1583.1,779.6,2497.7,1552.8,913.4,1585,2545.5,0,49,-200
0.203000,990.5,208.1,1710.6,744.9,2526.7,2213.8,912.4,1583,2534.5,0,48.4,-200
0.205000,957.5,228.0,1725.4,692.3,2686.2,2230.7,912.1,1582.3,2530.8,0,47.7,-200
