time,f1,b1,f2,b2,f3,b3,f1p,f2p,f3p,f0,intensity,harmonicity
0.025000,865.2,95.0,1512.7,160.5,3027.0,1031.6,878.2,1529.7,2899.6,196.3,75.2,18.7
0.027000,872.6,97.9,1517.9,163.8,2913.6,948.2,879.7,1530.9,2901.4,196.3,75.2,19.2
0.029000,880.2,99.3,1522.7,162.9,2849.1,814.6,882.1,1532.9,2904.3,196.3,75.1,19.8
0.031000,887.7,100.0,1529.5,159.0,2841.5,671.1,885.4,1535.7,2908.2,196.2,75,20.6
0.033000,894.6,100.5,1538.4,153.4,2866.9,530.2,889.5,1539.1,2913,196.2,75,21.3
0.035000,900.3,101.0,1548.2,147.9,2897.4,414.3,894.2,1543.1,2918.3,196.2,74.9,21.9
0.037000,904.9,101.9,1557.1,144.2,2921.8,341.0,899.3,1547.5,2924.2,196.2,74.9,22.5
0.039000,909.4,102.5,1563.9,142.3,2940.8,303.6,904.8,1552.3,2930.2,196.1,74.8,23.1
0.041000,914.6,101.8,1568.5,140.9,2955.4,286.4,910.5,1557.4,2936.1,196.1,74.8,23.6
0.043000,919.7,100.8,1572.0,140.6,2967.1,284.7,916.1,1562.6,2941.8,196.1,74.7,24
0.045000,923.3,101.6,1574.7,143.2,2977.9,302.7,921.6,1567.8,2947,196.1,74.7,24.4
0.047000,925.4,104.1,1576.9,147.3,2984.9,337.2,926.7,1573,2951.5,196,74.6,24.6
0.049000,927.7,105.7,1579.0,148.0,2977.9,363.5,931.4,1578,2955.2,196,74.5,24.7
0.051000,931.5,105.0,1582.0,143.1,2953.9,352.7,935.5,1582.7,2958,196,74.4,24.7
0.053000,936.2,103.1,1586.6,137.4,2927.1,317.4,938.9,1587.2,2959.7,196,74.3,24.6
0.055000,940.7,102.0,1592.7,136.0,2907.5,290.7,941.6,1591.3,2960.4,196,74.2,24.6
0.057000,943.6,103.2,1599.3,141.1,2899.9,283.9,943.5,1595.1,2960.2,196,74.1,24.4
0.059000,944.4,107.1,1604.5,152.4,2911.9,292.0,944.7,1598.6,2959,195.9,74,24.3
0.061000,943.7,111.9,1607.5,166.7,2944.7,299.7,945.2,1601.8,2957.2,195.9,73.9,24
0.063000,942.7,115.6,1608.9,177.9,2981.0,295.7,945,1604.8,2954.9,195.9,73.8,23.8
0.065000,942.1,117.2,1609.6,180.5,3000.0,291.5,944.3,1607.6,2952.3,195.9,73.7,23.5
0.067000,941.6,118.5,1609.6,176.8,2998.9,300.6,943.3,1610.4,2949.7,195.9,73.6,23.3
0.069000,940.7,121.1,1608.8,174.4,2986.6,327.6,941.9,1613.2,2947.4,195.9,73.4,23.1
0.071000,940.0,124.6,1607.5,177.9,2970.8,377.4,940.6,1616.3,2945.7,196,73.2,22.8
0.073000,940.4,127.8,1606.5,187.0,2952.3,451.3,939.3,1619.6,2945,196,73,22.5
0.075000,942.1,129.4,1606.8,197.3,2924.7,528.4,938.4,1623.3,2945.6,196,72.8,22.2
0.077000,944.7,128.2,1608.9,202.7,2890.0,563.3,938.1,1627.6,2947.7,196,72.5,21.9
0.079000,947.3,125.4,1612.0,200.9,2875.8,551.4,938.4,1632.5,2951.6,196,72.2,21.7
0.081000,949.5,124.2,1616.7,194.3,2907.7,528.6,939.7,1638.2,2957.4,196,71.9,21.4
0.083000,951.3,127.2,1628.0,188.2,2976.5,496.2,942.1,1644.6,2965.4,196.1,71.6,20.8
0.085000,953.0,135.2,1653.3,188.2,3033.3,450.7,945.7,1652,2975.6,196.1,71.3,19.5
0.087000,955.3,142.9,1688.9,186.5,3055.3,409.0,950.6,1660.3,2988,196.1,70.9,17.3
0.089000,959.5,145.6,1718.2,175.9,3059.5,372.9,956.9,1669.5,3002.6,196.2,70.5,14.2
0.091000,965.8,145.8,1733.9,162.5,3059.2,342.4,964.6,1679.5,3019.3,196.2,69.9,10.9
0.093000,972.9,148.4,1739.0,152.4,3059.2,319.2,973.9,1690.4,3037.9,196.2,69.3,8.1
0.095000,978.1,159.9,1737.6,152.2,3060.5,309.2,984.5,1702.1,3058.2,196.3,68.5,6.3
0.097000,978.1,194.9,1731.3,175.5,3063.4,320.0,996.5,1714.4,3079.8,196.3,67.6,6
0.099000,972.6,286.1,1719.0,244.6,3069.8,350.1,1009.8,1727.2,3102.4,196.4,66.7,6.7
0.101000,968.8,473.2,1695.7,344.4,3080.4,387.4,1024.1,1740.4,3125.6,196.4,65.9,7.9
0.103000,976.5,741.0,1671.0,385.7,3098.2,418.7,1039.4,1753.7,3149.2,196.5,65.3,9.1
0.105000,1020.8,940.5,1667.0,379.6,3128.2,422.6,1055.3,1767,3172.5,196.5,64.8,10
0.107000,1113.2,847.7,1688.4,413.6,3171.2,372.0,1071.8,1780,3195.3,196.5,64.4,10.4
0.109000,1165.3,558.5,1746.2,484.5,3211.2,287.6,1088.5,1792.7,3217.1,196.6,64.1,10.7
0.111000,1168.2,354.3,1813.6,527.7,3239.2,223.9,1105.2,1804.6,3237.7,196.6,63.7,10.9
0.113000,1162.1,248.0,1869.3,560.4,3264.3,190.8,1121.7,1815.8,3256.7,196.6,63.2,11
0.115000,1157.2,195.0,1912.2,575.1,3292.2,172.5,1137.7,1825.9,3273.8,196.6,62.7,10.8
0.117000,1154.8,179.5,1933.1,556.8,3321.1,156.5,1152.8,1834.7,3288.8,196.7,62.1,13.8
0.119000,1154.9,205.1,1923.8,521.0,3343.1,139.5,1167,1842.2,3301.7,196.7,61.4,19.8
0.121000,1158.3,284.1,1889.2,506.3,3347.5,123.0,1180,1848.2,3312.4,196.7,60.7,24
0.123000,1171.3,384.9,1845.5,529.0,3336.0,107.4,1191.7,1852.6,3320.9,196.7,60,21.6
0.125000,1194.9,381.2,1825.8,583.4,3321.5,94.2,1201.7,1855.3,3327.3,196.7,59.4,7.8
0.127000,1210.2,294.5,1837.4,647.0,3310.5,87.1,1210.1,1856.2,3331.7,196.7,58.7,-23.9
0.129000,1218.5,229.3,1851.9,716.3,3304.9,88.2,1216.7,1855.4,3334.5,196.7,58.1,-70.5
0.131000,1227.7,201.0,1856.8,794.7,3307.4,93.3,1221.4,1852.8,3335.8,196.7,57.4,-122
0.133000,1238.5,201.7,1851.7,833.1,3317.2,93.2,1224.3,1848.4,3336,196.7,56.5,-168.5
0.135000,1248.8,232.1,1837.9,782.8,3327.9,86.7,1225.4,1842.5,3335.5,196.7,55.8,-200
0.137000,1255.3,296.8,1817.4,665.2,3336.4,82.2,1224.6,1835,3334.6,196.7,54.7,-213.3
0.139000,1255.2,393.6,1792.6,541.6,3344.4,85.2,1222.1,1826.1,3333.7,196.8,53.7,-215
0.141000,1232.0,494.9,1765.3,423.4,3353.3,96.6,1217.9,1815.9,3333.2,196.8,52.9,-210
0.143000,1165.4,502.9,1749.8,292.2,3360.0,115.2,1212.2,1804.6,3333.4,196.8,52.3,-203.3
0.145000,1113.8,410.4,1746.9,189.6,3362.4,141.7,1205.2,1792.3,3334.7,0,51.9,-200
0.147000,1103.5,333.4,1747.4,135.4,3363.3,176.7,1196.9,1779.3,3337.3,0,52,-200
0.149000,1116.2,294.0,1748.5,114.3,3365.0,211.9,1187.6,1765.7,3341.4,0,52.1,-200
0.151000,1136.0,269.0,1748.2,110.6,3361.4,227.5,1177.5,1751.7,3347.1,0,52,-200
0.153000,1153.4,242.8,1745.0,115.8,3347.8,203.7,1166.8,1737.5,3354.5,0,52.1,-200
0.155000,1166.3,217.7,1741.0,125.9,3338.7,152.5,1155.6,1723.2,3363.6,0,51.7,-200
0.157000,1175.8,199.9,1741.8,138.1,3344.5,108.2,1144.1,1709.2,3374.3,0,51.3,-200
0.159000,1183.5,189.4,1747.0,148.8,3358.8,81.3,1132.6,1695.4,3386.4,0,50.7,-200
0.161000,1191.1,186.9,1747.1,157.2,3374.1,67.5,1121.1,1682.1,3399.8,0,50,-200
0.163000,1195.5,197.3,1736.9,165.5,3389.6,64.7,1110,1669.4,3414.1,0,49.4,-200
0.165000,1187.0,224.4,1718.6,175.0,3408.8,73.7,1099.3,1657.4,3429,0,49,-200
0.167000,1157.8,261.4,1692.9,186.2,3435.9,91.6,1089.2,1646.3,3444.2,0,48.7,-200
0.169000,1118.1,289.7,1655.1,193.4,3465.2,104.8,1079.8,1636.1,3459.2,0,48.7,-200
0.171000,1076.8,300.4,1610.1,183.1,3481.0,106.1,1071.3,1626.9,3473.6,0,48.8,-200
0.173000,1037.4,294.6,1576.1,167.4,3485.9,100.7,1063.6,1618.8,3487.1,0,48.9,-200
0.175000,1009.8,289.6,1557.2,169.9,3492.8,98.2,1057,1611.9,3499.3,0,48.9,-200
0.177000,997.8,298.7,1549.5,199.7,3504.7,108.0,1051.6,1606.2,3509.7,0,48.6,-200
0.179000,1005.1,322.7,1554.6,262.4,3521.4,131.7,1047.2,1601.7,3518.2,0,48.1,-200
0.181000,1029.9,345.8,1580.0,345.6,3538.5,169.6,1044.1,1598.5,3524.5,0,47.4,-200
0.183000,1040.3,357.4,1611.5,377.0,3549.3,237.8,1042.2,1596.5,3528.3,0,46.7,-200
0.185000,1002.3,366.7,1616.4,323.7,3558.8,319.9,1041.6,1595.9,3529.6,0,46,-200
