time,f1,b1,f2,b2,f3,b3,f1p,f2p,f3p,f0,intensity,harmonicity
0.025000,744.7,111.1,1901.9,176.5,3090.6,654.6,773.6,1897.3,3207.2,197.6,70,6.6
0.027000,751.8,111.8,1899.0,172.7,3070.4,653.1,775.1,1894.3,3207.6,197.6,69.9,7.2
0.029000,758.5,111.6,1892.6,168.4,3073.9,657.8,777.6,1889.3,3208.1,197.6,69.8,7.8
0.031000,766.2,110.4,1881.1,168.7,3105.1,681.9,781.1,1882.5,3208.8,197.5,69.7,8.5
0.033000,775.5,110.9,1867.7,170.7,3163.8,694.0,785.5,1874,3209.8,197.5,69.6,9.3
0.035000,788.3,113.1,1853.3,162.5,3226.6,659.5,790.6,1864.1,3211.1,197.5,69.4,10
0.037000,804.2,112.2,1838.3,141.8,3265.6,622.0,796.4,1853,3212.7,197.5,69.3,11
0.039000,816.5,109.5,1827.4,129.0,3285.6,647.3,802.8,1841,3214.6,197.4,69.2,12.1
0.041000,824.8,110.9,1818.7,131.5,3308.2,734.6,809.7,1828.4,3216.9,197.4,69,13.2
0.043000,831.3,114.5,1807.9,140.7,3323.6,836.7,816.8,1815.4,3219.6,197.4,68.9,14.1
0.045000,839.2,115.1,1793.1,143.1,3300.8,889.0,824.2,1802.5,3222.6,197.4,68.7,14.5
0.047000,847.9,112.0,1777.9,135.6,3284.5,811.1,831.7,1789.9,3226.1,197.4,68.5,14.4
0.049000,854.9,108.7,1767.9,129.2,3305.6,689.9,839.1,1777.9,3230,197.4,68.3,13.8
0.051000,859.9,110.8,1763.2,137.8,3335.4,559.4,846.4,1766.8,3234.2,197.4,68.2,13
0.053000,864.3,121.7,1762.2,175.5,3341.8,452.7,853.4,1756.9,3238.9,197.4,68.1,12.2
0.055000,871.8,134.5,1761.4,238.4,3322.5,390.9,860.1,1748.5,3243.8,197.5,68,11.6
0.057000,883.1,139.8,1762.2,290.1,3297.3,344.6,866.4,1741.6,3249.1,197.5,67.9,11.3
0.059000,892.3,137.2,1767.0,299.8,3282.1,304.0,872.2,1736.5,3254.6,197.5,67.7,11.1
0.061000,896.8,132.1,1772.9,277.7,3274.1,269.9,877.6,1733.3,3260.3,197.6,67.4,11
0.063000,896.8,127.9,1774.8,241.0,3268.9,249.9,882.5,1732.1,3266.1,197.6,66.9,11
0.065000,893.5,123.3,1769.1,196.8,3259.6,257.0,886.9,1732.8,3271.9,197.7,66.5,10.9
0.067000,889.2,120.1,1760.0,162.0,3235.8,325.0,890.9,1735.5,3277.6,197.7,65.9,10.8
0.069000,886.6,123.9,1756.1,148.8,3183.7,479.4,894.5,1740,3283.2,197.8,65.4,10.8
0.071000,885.6,134.3,1758.2,153.8,3140.5,630.2,897.8,1746.3,3288.5,197.9,64.8,10.8
0.073000,884.7,147.5,1761.2,169.5,3169.2,664.4,900.9,1754.1,3293.4,197.9,64.4,10.8
0.075000,882.5,167.7,1757.8,202.3,3235.0,612.2,903.9,1763.4,3297.9,197.9,64,10.7
0.077000,879.1,196.6,1742.0,254.6,3279.9,527.8,906.8,1773.8,3301.9,198,63.6,10.6
0.079000,876.4,222.6,1728.5,299.2,3290.2,476.5,909.9,1785.1,3305.4,198,63.4,10.4
0.081000,874.6,240.5,1737.5,326.2,3296.1,444.7,913.3,1797.1,3308.3,198,63.2,10.2
0.083000,873.7,247.3,1766.8,332.9,3310.4,413.9,916.9,1809.4,3310.6,197.9,63.1,10.1
0.085000,877.9,238.5,1802.4,314.8,3330.3,388.5,921.1,1821.8,3312.3,197.9,63.1,10.2
0.087000,893.7,211.2,1826.6,271.6,3348.9,388.6,925.9,1834.1,3313.4,197.8,63.1,10.6
0.089000,915.7,183.5,1832.0,224.5,3360.2,428.4,931.3,1845.9,3313.9,197.7,63.2,11.2
0.091000,937.4,169.0,1830.5,193.2,3360.9,509.7,937.6,1857.1,3314,197.5,63.2,11.9
0.093000,954.8,173.2,1833.9,194.7,3342.1,613.9,944.7,1867.4,3313.7,197.3,63.2,12.6
0.095000,970.8,193.6,1850.8,238.8,3297.8,743.2,952.7,1876.5,3313.1,197.1,63.1,13.1
0.097000,984.9,211.4,1880.8,315.0,3235.8,851.8,961.7,1884.5,3312.3,196.8,63,13.4
0.099000,997.1,213.5,1910.8,388.6,3189.6,871.0,971.6,1891,3311.6,196.5,62.6,13.6
0.101000,1010.7,215.6,1924.3,435.5,3201.6,816.1,982.4,1896.1,3311,196.2,62.3,13.8
0.103000,1030.8,239.9,1928.3,465.6,3259.8,773.8,994.2,1899.8,3310.7,195.8,61.9,13.8
0.105000,1060.6,288.5,1940.8,472.9,3332.3,765.7,1006.9,1901.9,3310.8,195.4,61.4,13.7
0.107000,1089.9,333.7,1956.3,430.0,3390.2,760.6,1020.3,1902.5,3311.6,195,60.9,13.3
0.109000,1107.2,352.3,1961.2,354.6,3422.9,732.7,1034.4,1901.7,3313.2,194.5,60.4,12.8
0.111000,1110.6,351.3,1949.8,282.4,3430.4,671.5,1049.1,1899.7,3315.6,194,59.9,12.2
0.113000,1108.4,359.0,1925.3,235.9,3416.3,571.4,1064.2,1896.4,3319.1,193.5,59.4,11.5
0.115000,1106.3,393.0,1893.0,207.5,3394.6,456.5,1079.6,1892,3323.7,193,59,11
0.117000,1105.7,465.6,1858.1,191.6,3383.7,378.8,1095.1,1886.8,3329.5,192.4,58.4,14
0.119000,1104.0,571.9,1830.2,186.3,3389.5,368.8,1110.6,1880.9,3336.4,191.9,58,20.2
0.121000,1095.2,690.6,1817.4,187.0,3401.5,424.4,1125.9,1874.4,3344.6,191.4,57.3,24.9
0.123000,1074.7,748.8,1829.0,192.1,3395.4,524.9,1140.9,1867.6,3353.9,190.9,56.7,22.9
0.125000,1045.0,708.2,1860.2,197.1,3352.1,606.2,1155.3,1860.6,3364.2,190.3,56.1,9.3
0.127000,1035.2,623.6,1884.3,202.1,3305.0,615.1,1169,1853.6,3375.4,189.8,55.2,-22.6
0.129000,1060.4,569.7,1883.6,214.5,3289.7,571.6,1181.9,1846.7,3387.4,189.4,54.6,-69.5
0.131000,1113.6,561.5,1858.9,229.2,3317.0,475.9,1193.8,1840.1,3399.9,188.9,53.9,-121.4
0.133000,1178.1,577.2,1828.2,232.3,3357.3,372.1,1204.7,1834,3412.7,188.5,53.4,-168.2
0.135000,1243.1,581.0,1809.1,217.2,3393.7,296.8,1214.3,1828.3,3425.5,188,52.8,-200
0.137000,1275.1,565.9,1807.2,183.1,3424.2,263.3,1222.7,1823.1,3437.9,187.7,52.5,-213.4
0.139000,1262.8,563.6,1811.6,137.5,3451.8,260.1,1229.7,1818.5,3449.7,187.3,51.9,-215.1
0.141000,1217.6,602.2,1814.3,98.8,3474.0,284.9,1235.3,1814.5,3460.5,187,51.5,-210
0.143000,1167.1,695.9,1813.0,80.0,3480.8,334.9,1239.6,1811,3469.9,0,51.2,-203.3
0.145000,1161.2,830.4,1807.7,79.1,3466.4,381.0,1242.4,1808,3477.6,0,50.4,-200
0.147000,1275.1,852.0,1799.0,99.2,3439.0,361.2,1243.8,1805.4,3483.3,0,50.1,-200
0.149000,1367.1,647.9,1793.5,133.1,3424.3,302.8,1243.9,1803.3,3486.5,0,49.8,-200
0.151000,1369.7,453.5,1794.2,145.6,3435.5,268.6,1242.8,1801.3,3487.1,0,49.4,-200
0.153000,1344.5,344.2,1795.2,130.4,3464.2,264.6,1240.4,1799.5,3484.8,0,49.3,-200
0.155000,1323.3,285.7,1795.5,113.9,3487.2,260.9,1236.9,1797.7,3479.4,0,49.2,-200
0.157000,1307.7,273.5,1792.0,107.8,3488.3,251.7,1232.3,1795.8,3470.6,0,49,-200
0.159000,1290.7,295.4,1782.1,110.4,3477.0,259.3,1226.9,1793.8,3458.4,0,48.7,-200
0.161000,1267.6,339.8,1768.0,117.8,3459.9,307.2,1220.7,1791.4,3442.8,0,48.3,-200
0.163000,1241.7,386.0,1759.7,128.7,3439.7,399.0,1213.8,1788.5,3423.7,0,47.5,-200
0.165000,1214.5,422.4,1766.4,146.8,3423.8,499.4,1206.3,1785.3,3401.3,0,46.7,-200
0.167000,1184.6,422.7,1788.6,164.6,3425.3,520.6,1198.5,1781.4,3375.7,0,46,-200
0.169000,1145.8,386.9,1810.3,175.8,3419.7,505.6,1190.3,1777,3347.2,0,45.3,-200
0.171000,1104.1,351.4,1810.7,186.7,3367.9,538.7,1182,1772.1,3316,0,44.9,-200
0.173000,1067.1,329.3,1790.1,187.8,3260.5,590.0,1173.6,1766.5,3282.6,0,44.7,-200
0.175000,1042.6,304.5,1769.7,172.0,3144.8,589.1,1165.3,1760.4,3247.3,0,44.7,-200
0.177000,1040.7,290.8,1761.3,156.7,3092.3,569.0,1157.1,1753.9,3210.6,0,44.6,-200
0.179000,1054.1,301.4,1758.3,151.9,3096.7,593.6,1149.1,1746.9,3173,0,44.6,-200
0.181000,1079.3,345.9,1753.7,160.8,3132.5,717.8,1141.5,1739.7,3135,0,44.6,-200
0.183000,1115.8,413.5,1743.7,181.3,3153.6,1007.0,1134.3,1732.3,3097.3,0,44.7,-200
0.185000,1158.3,448.6,1730.5,193.3,3097.2,1375.8,1127.5,1724.9,3060.3,0,44.9,-200
0.187000,1176.4,401.0,1723.0,170.1,3076.0,1544.5,1121.2,1717.6,3024.8,0,45.2,-200
0.189000,1168.6,331.2,1718.5,129.5,3163.5,1620.3,1115.5,1710.5,2991.2,0,45.5,-200
0.191000,1147.2,288.3,1714.0,99.1,3268.6,1673.1,1110.4,1703.9,2960.1,0,45.6,-200
0.193000,1121.6,280.9,1710.2,88.6,3221.6,1745.4,1105.9,1697.8,2932,0,45.5,-200
0.195000,1098.2,301.3,1706.7,93.7,3031.6,1671.9,1102.1,1692.3,2907.3,0,45.1,-200
0.197000,1089.1,344.6,1701.7,112.3,2892.8,1504.5,1099,1687.7,2886.6,0,44.5,-200
0.199000,1099.2,394.4,1690.3,147.2,2784.9,1424.2,1096.5,1684,2870,0,43.9,-200
0.201000,1122.6,409.5,1666.4,193.0,2667.0,1389.7,1094.7,1681.3,2858,0,43.1,-200
0.203000,1137.5,393.5,1637.1,222.2,2585.7,1379.3,1093.7,1679.7,2850.7,0,42.4,-200
0.205000,1137.5,383.4,1612.7,229.6,2574.0,1446.1,1093.3,1679.1,2848.3,0,42,-200
