time,f1,b1,f2,b2,f3,b3,f1p,f2p,f3p,f0,intensity,harmonicity
0.025000,690.5,96.5,1643.4,327.2,2836.7,221.5,706.9,1681.9,2848.2,158.5,70.7,17.2
0.027000,695.3,99.0,1650.0,358.4,2841.1,260.7,707.2,1684,2847,158.7,70.5,17.7
0.029000,700.7,100.2,1666.3,381.6,2845.8,282.3,707.8,1687.3,2845.1,158.9,70.3,17.9
0.031000,706.9,102.2,1693.3,396.1,2847.7,284.6,708.6,1691.9,2842.4,159.1,70.1,17.9
0.033000,713.1,104.6,1718.5,393.2,2846.0,273.7,710,1697.5,2839.3,159.3,69.9,17.8
0.035000,718.2,107.4,1732.3,381.7,2843.0,255.4,711.8,1704,2835.7,159.6,69.7,17.9
0.037000,721.0,112.3,1733.3,378.8,2839.2,235.6,714.3,1711.1,2831.7,159.9,69.5,18.1
0.039000,723.0,118.3,1731.1,386.4,2833.2,218.6,717.6,1718.7,2827.6,160.2,69.3,18.5
0.041000,727.1,122.9,1737.0,397.5,2823.9,206.5,721.7,1726.5,2823.5,160.5,69.1,18.8
0.043000,733.7,126.3,1753.8,410.7,2813.7,204.8,726.6,1734.3,2819.3,160.8,68.9,18.9
0.045000,741.8,129.7,1773.0,431.6,2805.2,214.3,732.3,1741.8,2815.3,161.1,68.7,18.7
0.047000,748.6,133.1,1780.6,456.3,2801.9,226.4,738.7,1748.8,2811.3,161.4,68.5,18.1
0.049000,753.2,137.9,1771.7,472.9,2803.8,228.2,745.8,1755.1,2807.5,161.8,68.3,17.2
0.051000,757.3,144.2,1753.7,466.0,2806.4,211.7,753.3,1760.5,2803.7,162.1,68,16.2
0.053000,762.9,148.2,1740.9,434.3,2804.1,180.8,761,1764.8,2800,162.5,67.8,15.1
0.055000,770.4,150.2,1734.4,395.6,2796.8,145.7,768.8,1767.9,2796.2,162.9,67.5,14.2
0.057000,777.4,152.8,1731.1,365.7,2789.5,119.2,776.3,1769.9,2792.2,163.2,67.2,13.4
0.059000,782.0,155.6,1731.7,341.1,2786.0,105.1,783.3,1770.5,2787.9,163.6,66.9,12.5
0.061000,784.3,158.5,1738.3,309.1,2785.2,100.5,789.6,1769.9,2783.3,164,66.7,11.8
0.063000,785.4,161.0,1748.1,272.0,2784.7,102.6,795,1768.1,2778.2,164.3,66.4,11.3
0.065000,786.6,161.3,1759.0,238.6,2782.6,110.7,799.5,1765.2,2772.6,164.7,66.1,11.1
0.067000,788.6,158.2,1769.8,218.7,2778.3,126.0,803,1761.4,2766.4,165,65.9,11.6
0.069000,791.3,152.1,1779.2,208.4,2771.1,145.4,805.5,1756.7,2759.8,165.3,65.7,12.7
0.071000,794.9,143.2,1786.0,201.5,2759.3,162.1,807.2,1751.4,2752.8,165.6,65.5,13.9
0.073000,799.4,133.7,1788.3,196.9,2743.6,167.4,808.3,1745.8,2745.5,165.9,65.3,14.9
0.075000,805.6,126.6,1782.4,194.0,2724.4,164.1,809,1739.9,2738.2,166.2,65.1,15
0.077000,814.1,125.8,1763.2,189.5,2708.8,161.2,809.8,1734.1,2731,166.4,64.7,14.2
0.079000,825.5,129.3,1736.5,178.1,2700.7,165.1,811,1728.5,2724.2,166.6,64.4,12.7
0.081000,837.9,132.9,1712.0,164.2,2698.1,182.5,813,1723.3,2718.1,166.8,64,10.8
0.083000,842.6,134.0,1697.4,158.6,2699.2,214.6,816.2,1718.7,2713,167,63.7,9
0.085000,835.0,129.6,1689.5,163.1,2705.4,245.2,821,1714.7,2709.1,167.1,63.3,7.8
0.087000,820.9,120.0,1685.4,177.5,2718.9,243.2,827.6,1711.5,2706.7,167.2,62.9,7
0.089000,812.8,117.4,1684.5,198.7,2731.2,228.7,836.4,1709.1,2706,167.3,62.5,6.6
0.091000,818.2,136.5,1687.1,216.5,2734.9,237.4,847.4,1707.5,2707.1,167.3,61.9,6.4
0.093000,839.6,183.7,1691.2,229.3,2729.1,259.6,860.6,1706.7,2710.2,167.4,61.3,6.3
0.095000,881.5,259.1,1695.9,253.6,2720.8,253.5,875.8,1706.5,2715.2,167.4,60.7,6.4
0.097000,934.5,326.1,1704.3,299.6,2721.5,213.2,892.9,1706.8,2722,167.4,60.1,6.6
0.099000,967.0,329.6,1722.2,354.6,2732.5,178.3,911.4,1707.5,2730.6,167.4,59.6,7.2
0.101000,970.1,270.7,1745.2,359.5,2750.3,157.8,930.9,1708.4,2740.6,167.4,59.3,7.9
0.103000,964.0,208.5,1748.4,289.8,2765.7,144.6,950.6,1709.3,2751.8,167.3,59,8.4
0.105000,960.9,159.0,1738.3,212.4,2772.9,136.2,970.1,1710,2763.8,167.3,58.8,8.7
0.107000,962.8,127.1,1727.1,167.0,2770.3,136.0,988.7,1710.3,2776.4,167.3,58.7,8.5
0.109000,968.2,109.9,1714.3,149.2,2761.6,143.6,1005.6,1710.1,2789,167.2,58.5,8.2
0.111000,976.0,101.7,1696.8,148.5,2755.0,156.4,1020.3,1709.2,2801.4,167.2,58.2,7.7
0.113000,985.1,101.4,1679.3,162.8,2764.8,164.9,1032.3,1707.5,2813,167.2,57.9,7.2
0.115000,996.9,110.8,1667.4,199.2,2796.3,160.8,1041.1,1705,2823.8,167.2,57.5,6.9
0.117000,1012.4,133.8,1667.3,263.1,2832.3,147.9,1046.5,1701.5,2833.2,167.2,57.2,6.7
0.119000,1030.4,168.4,1674.9,319.3,2858.3,134.4,1048.3,1697.1,2841.2,167.2,56.7,6.7
0.121000,1049.4,203.2,1681.5,313.1,2874.2,121.2,1046.5,1691.9,2847.7,167.2,56.3,6.6
0.123000,1067.1,208.6,1690.9,268.8,2880.4,115.7,1041.4,1686.1,2852.6,167.3,55.8,6.6
0.125000,1083.3,189.2,1704.3,236.0,2881.7,125.8,1033.4,1679.6,2855.9,167.3,55.3,6.5
0.127000,1089.3,174.3,1713.4,234.9,2881.2,163.1,1022.9,1672.8,2857.7,167.4,54.9,9.6
0.129000,1078.4,182.4,1710.6,275.3,2880.7,249.4,1010.6,1665.8,2858.4,167.5,54.4,16
0.131000,1049.3,215.1,1690.0,375.6,2877.6,427.3,997.2,1658.8,2857.9,167.6,54.1,20.7
0.133000,1014.4,243.3,1649.4,500.2,2856.1,582.3,983.5,1652.2,2856.8,167.7,53.8,18.8
0.135000,982.8,239.1,1605.3,538.0,2839.2,515.4,970.2,1646.2,2855.1,167.8,53.5,5.5
0.137000,963.1,225.9,1606.1,481.4,2836.8,413.1,958.2,1640.8,2853.3,167.9,53.2,-25.8
0.139000,951.1,241.7,1630.7,430.8,2831.0,384.9,948,1636.5,2851.6,168.1,52.7,-71.8
0.141000,936.2,312.5,1649.4,422.3,2828.1,421.4,940.4,1633.2,2850.2,168.2,52.2,-122.8
0.143000,908.7,463.8,1648.8,468.1,2839.1,538.1,935.6,1631.3,2849.3,168.3,51.5,-168.8
0.145000,799.4,789.7,1608.4,614.8,2865.8,937.1,933.9,1630.6,2849,168.5,50.5,-200
