time,f1,b1,f2,b2,f3,b3,f1p,f2p,f3p,f0,intensity,harmonicity
0.025000,687.7,112.8,1660.8,222.9,2699.5,250.9,691.4,1635.1,2662.2,183,70.1,10.5
0.027000,690.8,107.2,1645.6,246.0,2682.9,242.7,693.5,1633.3,2660.6,182.8,70.2,11.6
0.029000,695.9,103.6,1632.0,271.4,2662.9,243.8,696.9,1630.4,2658.1,182.5,70.3,13
0.031000,702.9,102.3,1623.3,283.0,2645.1,245.3,701.5,1626.4,2654.7,182.3,70.3,14.3
0.033000,710.5,102.2,1617.6,277.0,2634.1,235.9,707.1,1621.7,2650.6,182.1,70.4,15.2
0.035000,717.5,102.1,1610.1,264.3,2629.2,215.9,713.5,1616.3,2645.9,181.9,70.4,15.3
0.037000,724.0,101.7,1599.5,254.5,2626.7,193.6,720.4,1610.5,2640.7,181.7,70.4,14.2
0.039000,730.6,101.3,1589.3,249.1,2624.7,176.4,727.6,1604.5,2635.3,181.5,70.4,12.2
0.041000,737.5,102.1,1583.2,243.7,2622.5,166.7,734.9,1598.6,2629.8,181.3,70.3,9.9
0.043000,744.3,103.8,1582.2,233.3,2619.8,161.3,742,1592.9,2624.4,181.1,70.2,7.9
0.045000,750.2,106.5,1583.6,218.4,2616.7,155.2,748.7,1587.7,2619.3,181,70,6.8
0.047000,755.2,112.0,1584.9,205.0,2613.5,148.4,754.9,1583,2614.4,180.8,69.9,6.9
0.049000,758.9,119.0,1585.6,198.6,2609.6,146.1,760.3,1578.9,2610,180.7,69.7,7.8
0.051000,759.8,122.2,1585.4,202.2,2603.7,152.4,765,1575.6,2606.2,180.6,69.6,9
0.053000,758.9,119.6,1582.6,219.5,2596.9,166.7,768.9,1573,2602.8,180.5,69.6,10.2
0.055000,760.1,117.0,1576.4,251.4,2595.5,179.6,771.9,1571,2600,180.5,69.7,10.7
0.057000,765.0,118.3,1568.2,291.2,2602.1,178.7,774.2,1569.6,2597.7,180.5,69.7,10.7
0.059000,770.9,120.8,1561.4,326.0,2609.0,167.7,775.9,1568.6,2595.8,180.4,69.8,10.3
0.061000,775.6,120.2,1560.2,343.8,2609.9,157.0,777,1568,2594.3,180.4,69.8,9.7
0.063000,779.1,115.9,1565.7,342.1,2604.8,151.9,777.8,1567.4,2593.2,180.4,69.7,9.1
0.065000,782.7,111.8,1573.3,326.3,2596.4,154.7,778.5,1566.9,2592.3,180.5,69.5,8.5
0.067000,787.0,112.8,1578.0,305.3,2589.2,166.6,779.1,1566.1,2591.5,180.5,69.3,7.7
0.069000,791.6,121.3,1579.0,287.7,2586.7,186.5,779.9,1565.1,2590.9,180.5,69,6.7
0.071000,795.5,135.0,1576.9,276.7,2588.1,206.6,781,1563.7,2590.2,180.6,68.7,5.8
0.073000,796.3,147.3,1571.1,273.7,2590.3,218.9,782.7,1561.8,2589.7,180.6,68.5,5.3
0.075000,793.5,153.6,1560.3,280.7,2591.5,224.1,784.9,1559.4,2589.1,180.7,68.2,5.6
0.077000,790.2,155.9,1547.3,294.8,2590.9,225.5,787.9,1556.7,2588.6,180.7,67.9,7.2
0.079000,789.9,158.9,1538.5,306.1,2589.1,221.7,791.5,1553.5,2588.1,180.7,67.6,9.8
0.081000,792.8,164.7,1536.6,308.7,2587.5,211.3,795.9,1550.2,2587.9,180.7,67.3,12.6
0.083000,796.3,171.9,1536.8,305.5,2587.2,194.0,801,1546.9,2587.8,180.7,66.9,15.1
0.085000,799.7,177.0,1535.0,301.4,2588.1,170.3,806.8,1543.7,2588.1,180.7,66.5,16.4
0.087000,803.9,178.2,1530.2,300.4,2590.4,145.4,813.1,1540.8,2588.8,180.6,66,16.4
0.089000,809.7,175.0,1526.6,296.8,2593.0,127.6,820,1538.7,2590,180.5,65.5,15.3
0.091000,816.9,167.2,1530.9,273.1,2593.1,123.7,827.2,1537.3,2591.8,180.4,65,13.8
0.093000,823.8,160.7,1538.2,238.6,2588.8,139.2,834.8,1537.1,2594.2,180.3,64.4,12.2
0.095000,829.6,166.8,1542.0,222.5,2581.5,183.2,842.5,1538.1,2597.4,180.1,63.8,11
0.097000,836.1,194.3,1544.9,234.5,2576.8,261.0,850.3,1540.6,2601.2,180,63,10.2
0.099000,847.6,241.2,1553.2,258.7,2575.1,345.3,858.1,1544.6,2605.8,179.8,62.2,9.7
0.101000,868.5,293.1,1570.3,273.1,2579.8,395.4,865.9,1550.2,2611,179.6,61.2,9.2
0.103000,895.7,324.1,1591.0,272.8,2607.2,383.4,873.6,1557.4,2616.8,179.3,60.1,8.5
0.105000,913.3,317.4,1606.3,271.6,2641.5,308.9,881.1,1566.3,2623.1,179.1,59,7.5
0.107000,914.5,290.6,1613.6,292.3,2660.3,234.6,888.5,1576.6,2629.8,178.8,57.8,9.2
0.109000,908.3,266.6,1607.3,351.4,2668.5,201.7,895.8,1588.4,2636.7,178.6,56.5,13.7
0.111000,901.8,247.1,1573.7,413.7,2674.1,209.6,902.9,1601.3,2643.8,178.3,55.2,16.5
0.113000,906.0,223.6,1547.7,390.8,2680.9,228.4,909.9,1615.3,2650.8,178,54,13.1
0.115000,920.4,207.0,1565.1,326.8,2687.3,221.6,916.9,1629.9,2657.6,177.7,52.7,-0.8
0.117000,932.5,185.1,1601.8,258.0,2687.6,188.0,923.7,1645.1,2664.1,0,51.6,-31.6
0.119000,935.0,139.2,1641.7,194.7,2685.4,153.7,930.5,1660.5,2670.3,0,50.9,-76.3
0.121000,932.3,92.2,1679.0,152.5,2683.4,135.9,937.2,1675.9,2675.9,0,50.3,-125.5
0.123000,930.8,63.9,1711.9,133.4,2677.9,135.9,943.7,1690.9,2680.9,0,49.9,-169.9
0.125000,931.7,49.9,1737.6,134.1,2664.3,146.8,950.1,1705.5,2685.4,0,49.7,-200
0.127000,935.7,44.0,1752.9,155.7,2644.5,156.1,956.3,1719.3,2689.2,0,49.2,-212.7
0.129000,942.9,41.7,1756.8,196.1,2629.0,157.6,962.2,1732.1,2692.4,0,48.9,-214.3
0.131000,951.3,41.3,1757.4,228.3,2626.0,159.0,967.7,1743.7,2695,0,48.4,-209.6
0.133000,960.1,43.3,1767.1,217.9,2636.9,170.7,972.7,1754.1,2697.1,0,47.8,-203.2
0.135000,970.0,50.5,1779.1,180.4,2657.9,192.1,977.1,1763.1,2698.8,0,47.1,-200
0.137000,984.2,65.7,1783.6,155.3,2681.6,218.8,980.9,1770.6,2700,0,46.3,-200
0.139000,1003.8,89.0,1782.2,154.6,2706.1,249.2,984,1776.5,2700.9,0,45.6,-200
0.141000,1018.0,118.6,1776.3,180.8,2734.3,284.2,986.2,1780.7,2701.4,0,44.9,-200
0.143000,1009.5,155.5,1761.9,233.8,2766.8,329.4,987.6,1783.3,2701.8,0,44.4,-200
0.145000,976.5,191.1,1733.7,289.8,2799.8,388.3,988,1784.1,2701.9,0,44.1,-200
