time,f1,b1,f2,b2,f3,b3,f1p,f2p,f3p,f0,intensity,harmonicity
0.025000,744.2,86.1,1587.4,212.1,2433.2,294.9,741.4,1601.2,2450,210.3,75.5,9.1
0.027000,746.5,86.6,1585.6,216.5,2435.3,319.5,742.8,1596.9,2447.5,211.3,75.5,8.9
0.029000,749.1,88.3,1581.2,225.8,2438.8,337.4,745.2,1590.1,2443.5,212.3,75.6,8.4
0.031000,751.9,89.5,1575.7,237.5,2439.2,333.1,748.2,1581.4,2438.6,213.4,75.7,7.8
0.033000,754.2,88.8,1571.1,246.7,2437.5,309.5,751.7,1571.5,2433.2,214.6,75.8,7.1
0.035000,755.7,87.0,1566.5,251.1,2437.1,289.7,755.5,1561.2,2427.8,215.9,75.9,6.6
0.037000,756.6,85.5,1559.4,251.3,2435.6,289.0,759.4,1551.1,2423.1,217.3,76,6.2
0.039000,758.2,85.1,1549.6,249.8,2429.6,312.0,763.1,1542.2,2419.7,218.7,76.1,5.8
0.041000,761.8,86.2,1543.3,251.4,2422.9,351.9,766.6,1534.9,2418.1,220.2,76.2,5.5
0.043000,766.5,87.6,1543.1,257.9,2423.3,390.9,769.7,1529.6,2418.6,221.8,76.3,5.3
0.045000,770.6,87.3,1545.1,267.4,2429.3,418.8,772.5,1526.6,2421.5,223.5,76.4,5.1
0.047000,773.5,86.2,1545.1,277.7,2435.5,440.3,775.1,1525.6,2426.8,225.2,76.4,5.1
0.049000,776.0,86.4,1541.0,283.5,2441.6,458.0,777.7,1526.2,2434.4,227,76.4,5.2
0.051000,778.4,88.0,1534.1,278.8,2447.9,465.7,780.4,1527.9,2444,228.8,76.4,5.4
0.053000,780.4,89.6,1526.7,271.8,2451.7,470.8,783.4,1529.9,2455.2,230.7,76.4,5.5
0.055000,782.0,91.4,1518.2,273.8,2451.7,487.1,787.1,1531,2467.3,232.7,76.4,5.4
0.057000,784.6,95.3,1508.7,284.4,2452.8,511.3,791.5,1530.3,2479.9,234.7,76.3,5.2
0.059000,789.8,101.8,1500.1,291.6,2465.0,518.3,796.6,1526.8,2492.3,236.7,76.1,4.8
0.061000,797.8,109.3,1494.3,290.4,2488.5,491.5,802.6,1519.7,2503.7,238.7,75.9,4.3
0.063000,808.8,119.1,1488.2,295.3,2513.6,457.7,809.2,1508.1,2513.8,240.7,75.6,3.8
0.065000,823.1,135.3,1477.0,317.5,2533.4,447.6,816.1,1491.8,2522.2,242.7,75.3,3.3
0.067000,838.3,157.9,1461.7,347.2,2543.0,470.4,822.9,1470.6,2528.6,244.8,74.8,2.5
0.069000,850.6,181.3,1445.0,364.1,2539.5,512.9,829,1444.9,2533,246.7,74.4,1.5
0.071000,855.3,199.1,1429.2,365.0,2531.6,549.3,833.6,1415.2,2535.6,248.7,73.9,0.5
0.073000,853.7,218.3,1410.9,371.3,2538.9,589.8,836,1382.6,2536.9,250.6,73.4,-0.1
0.075000,847.9,247.3,1385.5,384.8,2562.2,655.4,835.5,1348.4,2537.4,252.5,73,0
0.077000,839.3,280.8,1355.0,385.6,2579.0,733.1,831.4,1314,2537.8,254.2,72.5,1
0.079000,827.8,320.0,1315.2,370.9,2567.0,803.5,822.9,1281.2,2539,255.9,72.1,2.7
0.081000,809.2,373.8,1260.8,339.6,2540.3,825.0,809.7,1251.7,2541.8,257.5,71.6,4.8
0.083000,765.7,424.2,1204.5,269.5,2535.0,762.0,791.6,1226.9,2547,259.1,71.1,7
0.085000,704.0,417.6,1170.0,195.4,2542.3,667.6,768.5,1208.5,2555.4,260.5,70.6,8.8
0.087000,667.9,415.3,1156.2,175.1,2535.5,682.1,740.7,1197.6,2567.7,261.7,70.1,10.4
0.089000,663.3,478.6,1157.5,215.1,2519.3,825.5,709,1194.9,2584.3,262.9,69.6,12
0.091000,672.1,542.5,1175.7,286.0,2546.5,907.6,674.1,1200.9,2605.4,263.9,68.9,13.4
0.093000,667.3,539.5,1218.9,340.7,2628.3,803.0,637.3,1215.6,2631,264.8,68.3,14.7
0.095000,644.4,510.5,1276.1,361.2,2703.6,615.4,599.9,1238.6,2661,265.5,67.5,15.6
0.097000,611.0,484.6,1324.4,355.8,2743.7,459.2,563.5,1268.9,2694.8,266.1,66.8,19.6
0.099000,569.7,459.6,1354.9,340.2,2765.0,360.6,529.6,1305.4,2731.8,266.5,66,26.8
0.101000,527.8,457.7,1364.9,340.4,2789.8,326.0,499.7,1346.7,2771.2,266.8,65.2,32
0.103000,488.9,479.4,1366.5,349.5,2825.8,340.4,475.3,1391,2812,267,64.5,30.2
0.105000,459.2,488.0,1383.7,331.7,2865.8,390.6,457.7,1436.7,2853.3,267,63.7,16.3
0.107000,444.7,486.5,1423.2,294.9,2897.8,480.4,447.5,1482,2894.1,266.8,63,-16.5
0.109000,441.1,513.8,1480.1,268.8,2917.4,643.2,445.5,1525.5,2933.4,266.6,62.3,-65
0.111000,444.6,578.6,1551.3,254.9,2919.0,888.3,451.8,1565.7,2970.5,266.2,61.5,-118.6
0.113000,452.4,678.6,1625.0,234.2,2947.8,1090.8,465.9,1601.7,3004.6,265.6,60.7,-167.1
0.115000,469.7,783.7,1676.5,205.0,3042.3,1115.4,487.3,1632.8,3035.3,265,59.9,-200
0.117000,506.2,834.7,1700.6,183.8,3096.9,992.9,514.6,1658.5,3062.2,264.3,59,-213.8
0.119000,550.3,844.1,1709.7,178.7,3116.6,868.5,546.5,1678.9,3085.3,263.5,58,-215.6
0.121000,577.1,842.6,1710.1,193.3,3126.3,757.0,581.2,1694.3,3104.6,262.6,56.8,-210.4
0.123000,584.6,835.1,1706.7,225.7,3123.7,601.7,616.7,1705.2,3120.2,261.7,55.6,-203.5
0.125000,591.7,778.6,1708.6,246.3,3111.7,413.3,651.1,1712.4,3132.6,260.7,54.3,-200
0.127000,609.5,675.2,1721.5,210.5,3106.6,281.3,682.4,1716.8,3141.9,259.7,52.9,-200
0.129000,643.9,611.7,1729.3,157.6,3111.5,224.1,708.7,1719.1,3148.7,258.6,51.4,-200
0.131000,708.7,635.1,1721.2,141.4,3130.9,236.7,728.7,1720.2,3153.3,257.6,49.9,-200
0.133000,812.4,683.5,1700.2,163.1,3172.4,297.1,741.2,1720.6,3155.9,256.5,48.5,-200
0.135000,908.8,652.5,1676.9,203.6,3219.5,335.3,745.5,1720.6,3156.8,255.5,47.7,-200
