time,f1,b1,f2,b2,f3,b3,f1p,f2p,f3p,f0,intensity,harmonicity
0.026000,698.7,84.3,1687.8,181.0,2827.9,288.1,713.1,1676.8,2789.9,162.8,73.4,2.8
0.028000,702.5,81.5,1678.7,193.2,2815.5,299.1,713.7,1676.6,2789.2,162.5,73.5,3.4
0.030000,707.2,78.9,1672.7,186.5,2797.6,330.3,714.8,1676.1,2788,162.3,73.6,4.3
0.032000,711.4,75.7,1671.1,172.7,2779.0,364.7,716.3,1675.5,2786.4,162.1,73.6,5.3
0.034000,715.0,72.1,1670.1,161.7,2763.2,384.0,718.1,1674.6,2784.3,161.9,73.7,6.4
0.036000,719.2,69.8,1668.2,155.8,2753.3,390.4,720.3,1673.6,2781.9,161.7,73.7,7.6
0.038000,724.3,69.4,1666.5,153.2,2751.8,403.5,722.8,1672.2,2779,161.5,73.8,9
0.040000,730.1,70.5,1665.7,149.9,2758.9,441.6,725.6,1670.6,2775.9,161.3,73.9,10.6
0.042000,736.0,73.3,1665.4,144.8,2776.0,512.0,728.7,1668.7,2772.5,161.2,74,12.1
0.044000,741.5,77.7,1664.7,139.6,2797.2,589.1,731.9,1666.4,2768.8,161,74,13.4
0.046000,746.2,82.7,1661.6,138.9,2800.5,633.3,735.3,1663.9,2764.9,160.8,74.1,14.3
0.048000,749.5,87.9,1656.5,143.2,2785.1,652.2,738.7,1661,2760.9,160.7,74.2,15
0.050000,751.9,92.5,1653.7,148.4,2771.2,675.1,742.1,1657.8,2756.8,160.6,74.2,15.5
0.052000,753.6,95.0,1656.2,152.8,2762.2,696.1,745.4,1654.4,2752.6,160.5,74.2,15.8
0.054000,755.2,95.9,1661.1,158.0,2747.3,691.4,748.5,1650.7,2748.3,160.4,74.2,15.7
0.056000,757.3,96.4,1663.0,162.6,2724.0,654.8,751.4,1646.9,2744.1,160.3,74.3,15.2
0.058000,759.1,97.0,1658.5,162.2,2702.8,601.2,754.1,1642.9,2739.9,160.3,74.3,13.9
0.060000,760.2,97.9,1649.9,157.2,2686.4,542.2,756.3,1638.8,2735.7,160.3,74.3,12.2
0.062000,759.5,97.6,1640.7,150.2,2672.8,496.7,758.1,1634.8,2731.5,160.3,74.2,10.5
0.064000,756.7,93.9,1633.6,142.5,2663.7,473.3,759.4,1630.8,2727.4,160.3,74.1,9.5
0.066000,753.0,89.0,1629.1,134.8,2669.0,459.2,760.2,1627.1,2723.3,160.4,74,9.6
0.068000,749.9,86.9,1625.3,130.2,2690.8,449.2,760.4,1623.6,2719.2,160.4,73.9,11
0.070000,748.1,88.1,1620.1,129.5,2720.0,450.0,760,1620.4,2715.1,160.5,73.8,13
0.072000,747.9,91.0,1614.8,132.2,2749.4,470.4,759,1617.7,2710.9,160.6,73.6,14.9
0.074000,748.6,94.1,1611.8,136.6,2775.4,504.3,757.4,1615.4,2706.6,160.8,73.5,16
0.076000,749.1,95.7,1611.8,140.7,2789.2,519.1,755.2,1613.6,2702.2,160.9,73.4,15.6
0.078000,747.7,94.6,1611.8,144.9,2776.0,488.9,752.5,1612.3,2697.6,161,73.2,13.6
0.080000,743.7,91.9,1609.1,151.7,2744.0,431.1,749.4,1611.6,2692.8,161.2,73,10.7
0.082000,739.3,90.4,1604.3,161.5,2716.2,380.7,745.9,1611.4,2687.8,161.3,72.7,7.8
0.084000,736.3,91.4,1599.3,172.7,2701.9,361.0,742.1,1611.8,2682.5,161.5,72.4,5.7
0.086000,734.8,95.3,1595.5,183.8,2698.0,369.9,738.2,1612.7,2676.9,161.7,72.1,5.3
0.088000,735.3,100.6,1592.7,193.4,2696.7,386.9,734.3,1613.9,2671,161.8,71.8,6.2
0.090000,736.5,106.3,1589.8,203.5,2686.3,391.0,730.4,1615.5,2664.9,161.9,71.4,8
0.092000,736.1,113.2,1587.5,215.4,2661.8,372.4,726.8,1617.4,2658.5,162.1,71,9.9
0.094000,732.4,121.9,1591.2,227.5,2631.9,337.9,723.6,1619.5,2652,162.2,70.5,11.3
0.096000,725.9,128.4,1607.8,236.5,2600.1,306.5,720.9,1621.7,2645.4,162.3,70,11.7
0.098000,719.4,127.2,1633.4,237.0,2565.0,287.8,718.9,1623.9,2638.9,162.3,69.4,11.3
0.100000,716.2,120.4,1658.7,229.8,2533.2,271.9,717.6,1626.1,2632.5,162.4,68.8,10.5
0.102000,719.8,116.4,1676.6,227.3,2517.6,259.3,717.2,1628,2626.6,162.4,68,9.6
0.104000,730.7,121.6,1686.3,244.0,2522.3,254.1,717.9,1629.8,2621.1,162.4,67.3,8.6
0.106000,747.7,137.8,1688.2,285.2,2544.7,249.2,719.6,1631.3,2616.5,162.4,66.4,8.8
0.108000,761.8,160.6,1679.4,327.0,2576.8,235.1,722.4,1632.4,2612.9,162.4,65.5,13.4
0.110000,761.1,193.3,1659.4,331.5,2617.2,214.2,726.5,1633.3,2610.5,162.3,64.6,18.9
0.112000,736.5,247.9,1636.3,279.7,2662.5,196.5,731.6,1633.9,2609.6,162.2,63.7,20.3
0.114000,695.6,335.5,1621.8,202.7,2699.6,194.8,738,1634.2,2610.6,162.1,62.8,12.9
0.116000,673.1,458.3,1611.4,151.3,2714.4,229.8,745.4,1634.4,2613.6,162,62,-8.8
0.118000,703.3,550.0,1601.0,138.2,2701.2,312.1,753.9,1634.4,2618.9,161.8,61.2,-48.6
0.120000,762.8,577.7,1593.6,145.5,2670.6,423.2,763.3,1634.3,2626.8,161.6,60.5,-98
0.122000,808.4,574.1,1593.2,157.7,2648.9,530.9,773.6,1634.4,2637.4,161.4,59.8,-147.4
0.124000,827.2,582.3,1603.4,164.6,2674.9,633.5,784.6,1634.6,2651,161.2,59.2,-186.9
0.126000,822.5,635.9,1620.3,166.6,2757.5,683.9,796.2,1635.2,2667.6,161,58.6,-208.3
0.128000,803.0,783.5,1630.1,184.3,2812.8,684.2,808.2,1636.2,2687.4,160.8,58.1,-215
0.130000,780.3,1034.0,1624.9,225.9,2804.8,721.1,820.5,1637.7,2710.4,160.6,57.7,-212.8
0.132000,773.6,1257.9,1611.2,274.5,2755.1,787.8,832.9,1639.9,2736.5,160.4,57.3,-206.4
0.134000,807.7,1271.5,1613.3,319.3,2696.3,852.3,845.2,1642.8,2765.7,160.2,56.9,-200.9
0.136000,852.6,1075.1,1643.0,354.2,2658.7,862.0,857.5,1646.5,2797.8,160,56.5,-200
0.138000,877.3,890.4,1676.2,375.5,2663.2,824.8,869.3,1651.1,2832.6,159.8,56.2,-200
0.140000,903.1,817.9,1695.4,418.2,2694.6,838.9,880.8,1656.6,2869.8,159.7,55.8,-200
0.142000,934.5,836.0,1700.7,484.9,2748.7,940.3,891.7,1662.9,2909,159.5,55.3,-200
0.144000,952.6,881.8,1701.2,509.4,2857.8,1065.1,902,1670,2949.9,159.3,54.7,-200
0.146000,932.7,870.0,1708.9,420.9,3028.3,948.1,911.6,1677.8,2991.9,159.2,54.2,-200
0.148000,914.7,842.1,1719.2,326.3,3124.4,720.2,920.4,1686.3,3034.6,159.1,53.7,-200
0.150000,920.2,895.0,1724.2,295.0,3183.4,645.7,928.4,1695.2,3077.4,159,53.2,-200
0.152000,937.2,1071.0,1718.5,320.9,3223.7,672.4,935.7,1704.5,3119.7,0,52.7,-200
0.154000,941.7,1358.0,1695.3,377.1,3240.5,724.3,942.1,1713.9,3160.9,0,52.3,-200
0.156000,936.3,1514.4,1666.2,440.3,3241.5,734.6,947.8,1723.3,3200.5,0,52,-200
0.158000,960.6,1273.4,1665.8,507.7,3248.9,690.9,952.6,1732.3,3237.8,0,51.6,-200
0.160000,961.9,911.2,1710.8,534.2,3264.9,641.1,956.8,1741,3272.3,0,51.2,-200
0.162000,950.2,680.1,1767.8,503.2,3295.5,622.0,960.3,1748.9,3303.4,0,50.7,-200
0.164000,948.7,574.4,1811.8,462.9,3352.9,635.6,963.2,1756,3330.6,0,50.2,-200
0.166000,952.5,546.3,1823.4,429.9,3453.4,706.8,965.4,1762.1,3353.5,0,49.5,-200
0.168000,965.0,591.9,1806.8,421.5,3606.5,561.0,967.1,1767,3371.7,0,48.8,-200
0.170000,989.1,707.7,1778.2,419.1,3278.8,3346.6,968.3,1770.6,3384.9,0,48.1,-200
0.172000,984.5,859.9,1731.6,393.1,3222.1,3136.8,969,1772.8,3393,0,47.2,-200
0.174000,937.8,996.0,1692.8,349.1,3259.7,2558.3,969.3,1773.5,3395.7,0,46.4,-200
