time,f1,b1,f2,b2,f3,b3,f1p,f2p,f3p,f0,intensity,harmonicity
0.025000,709.8,84.1,1641.9,204.0,2486.5,164.6,734.3,1624.7,2468.3,76.4,71.8,6.2
0.027000,715.7,86.3,1637.5,213.2,2497.6,182.8,734.9,1625,2468.6,76.4,71.7,6.4
0.029000,723.2,89.1,1627.7,221.1,2503.5,200.3,736,1625.6,2469.2,76.4,71.5,6.1
0.031000,731.4,89.7,1617.3,216.8,2496.7,206.9,737.6,1626.4,2470,76.4,71.4,5.7
0.033000,739.6,88.7,1610.8,206.4,2480.9,205.2,739.6,1627.4,2470.9,76.4,71.3,5.2
0.035000,746.0,87.1,1611.6,200.2,2465.2,194.1,742,1628.7,2471.9,76.5,71.2,5.2
0.037000,751.1,86.1,1619.0,203.8,2454.6,171.2,744.9,1630.3,2472.8,76.6,71,5.7
0.039000,756.4,88.5,1633.0,223.4,2450.5,143.3,748.3,1632.2,2473.7,76.7,70.9,6.7
0.041000,762.1,94.5,1647.3,253.4,2450.3,127.0,752,1634.4,2474.4,76.8,70.7,7.8
0.043000,766.4,100.1,1647.6,271.8,2450.1,129.4,756.2,1636.9,2474.9,77,70.7,8.4
0.045000,769.1,101.8,1634.0,263.4,2450.2,155.6,760.7,1639.6,2475.1,77.2,70.7,8.3
0.047000,773.9,101.0,1627.5,248.3,2452.4,205.5,765.5,1642.6,2475,77.4,70.8,7
0.049000,782.3,99.3,1634.4,242.1,2456.3,249.8,770.5,1645.7,2474.5,77.7,70.9,4.9
0.051000,792.2,97.9,1648.5,246.7,2458.4,250.4,775.6,1648.9,2473.8,78,70.9,2.5
0.053000,801.6,97.8,1665.0,258.7,2459.3,231.6,780.6,1652.2,2472.8,78.5,70.9,0.2
0.055000,805.4,99.4,1675.8,270.8,2460.4,224.2,785.6,1655.4,2471.6,79,70.8,-1.2
0.057000,803.6,103.2,1678.2,279.4,2463.9,235.3,790.3,1658.4,2470.2,79.6,70.7,-1.9
0.059000,799.5,109.4,1673.6,285.3,2472.2,261.2,794.8,1661.2,2468.8,80.2,70.5,-2
0.061000,796.0,114.0,1665.6,286.9,2481.6,282.0,798.7,1663.6,2467.4,81,70.4,-1.8
0.063000,791.7,113.8,1658.4,278.8,2484.0,280.9,802.2,1665.6,2466.2,81.9,70.3,-1.4
0.065000,787.2,110.9,1659.5,255.0,2477.6,258.8,805.1,1667,2465.4,83,70.2,-0.7
0.067000,784.8,108.8,1665.9,220.8,2471.1,232.0,807.4,1667.8,2465,84.1,70.2,0.5
0.069000,787.0,107.6,1665.1,193.0,2472.7,219.3,809.2,1667.9,2465.2,85.4,70.4,2.1
0.071000,792.2,106.8,1654.2,183.0,2483.7,228.9,810.4,1667.4,2466.1,86.9,70.6,3.9
0.073000,798.3,105.0,1644.0,181.1,2496.4,242.9,811.2,1666.1,2467.8,88.5,70.7,5.4
0.075000,804.0,101.5,1644.9,179.9,2500.6,242.9,811.7,1664.3,2470.4,90.2,70.8,6.2
0.077000,809.1,98.4,1656.3,179.0,2499.7,234.1,812,1661.9,2474.1,92.1,70.8,6
0.079000,812.6,98.6,1674.1,178.8,2499.7,223.0,812.5,1659.1,2478.8,94.2,70.7,5.1
0.081000,811.9,102.6,1688.0,181.8,2501.6,217.5,813.2,1655.9,2484.5,96.4,70.6,4
0.083000,806.3,105.7,1685.1,191.8,2500.7,224.3,814.6,1652.6,2491.4,98.8,70.6,2.8
0.085000,800.6,104.7,1658.9,207.7,2496.0,239.9,816.8,1649.3,2499.2,101.3,70.7,2
0.087000,799.5,103.0,1627.1,222.2,2495.1,244.7,820.2,1646.1,2508.1,0,70.7,1.5
0.089000,808.1,104.2,1608.8,228.1,2497.0,223.5,824.9,1643.4,2518,0,70.7,1
0.091000,827.2,110.9,1608.0,230.1,2499.0,196.2,831.3,1641.2,2528.7,0,70.6,0.7
0.093000,856.6,122.2,1620.2,229.2,2502.8,176.2,839.4,1639.8,2540.2,0,70.4,0.6
0.095000,887.3,133.1,1636.7,221.7,2508.6,168.4,849.5,1639.2,2552.5,0,70,0.7
0.097000,912.6,147.5,1648.1,213.4,2518.2,175.0,861.7,1639.8,2565.4,0,69.6,1.1
0.099000,932.6,173.4,1654.2,215.1,2540.2,196.3,875.8,1641.4,2578.8,0,69.1,1.8
0.101000,946.9,203.5,1661.4,227.4,2577.1,207.2,891.9,1644.3,2592.8,0,68.7,2.6
0.103000,955.4,227.0,1674.2,247.0,2614.3,189.8,909.7,1648.3,2607.2,0,68.3,3.3
0.105000,956.4,237.5,1690.3,269.6,2635.5,166.1,929.1,1653.5,2622,0,68,3.7
0.107000,952.2,238.6,1701.8,286.3,2646.8,150.4,949.7,1659.7,2637.2,0,67.5,3.7
0.109000,943.3,241.8,1694.7,287.9,2655.7,147.0,971,1666.8,2652.9,0,67.1,3.4
0.111000,930.9,264.1,1668.9,270.1,2673.3,167.4,992.6,1674.7,2669,0,66.7,3
0.113000,924.5,316.2,1651.5,233.9,2719.1,223.5,1014.1,1683.1,2685.6,0,66.2,2.6
0.115000,948.4,384.0,1657.5,203.2,2764.1,250.7,1034.7,1691.8,2702.8,0,65.7,2.4
0.117000,1007.7,432.9,1671.0,188.4,2778.1,231.3,1054.1,1700.4,2720.6,0,65.3,2.3
0.119000,1076.3,414.5,1685.5,178.8,2778.2,198.7,1071.5,1708.6,2739.1,0,64.7,2.3
0.121000,1116.0,349.4,1697.6,167.6,2776.5,168.9,1086.4,1716.3,2758.3,0,64.1,2.4
0.123000,1127.3,271.3,1706.4,155.7,2777.9,143.7,1098.4,1723.1,2778.4,158.2,63.4,2.5
0.125000,1120.1,210.8,1709.8,156.1,2787.0,133.1,1106.9,1728.7,2799.4,160.4,62.7,2.8
0.127000,1111.8,177.9,1711.3,181.7,2805.2,151.8,1111.7,1732.9,2821.3,162.5,62,6.5
0.129000,1111.2,162.7,1727.5,208.2,2821.6,221.5,1112.5,1735.6,2844,164.3,61.5,13.7
0.131000,1107.3,144.4,1753.3,199.3,2830.0,314.9,1109.2,1736.5,2867.6,166,61.1,19.4
0.133000,1096.3,119.9,1767.9,182.2,2850.6,376.4,1101.7,1735.7,2891.9,167.5,60.7,18.4
0.135000,1086.0,102.6,1768.3,176.2,2892.4,390.7,1090.2,1733,2916.8,168.9,60.2,5.6
0.137000,1078.3,95.4,1761.7,182.1,2944.1,362.9,1074.9,1728.7,2942.1,170.1,59.6,-25.4
0.139000,1072.5,100.7,1754.8,203.6,2992.5,298.1,1056.2,1722.7,2967.7,171.2,58.9,-71.5
0.141000,1069.0,124.5,1750.9,248.1,3027.3,243.0,1034.6,1715.3,2993.2,172.1,58,-122.5
0.143000,1066.3,183.8,1743.4,330.1,3050.7,211.6,1010.7,1706.6,3018.4,172.8,57,-168.7
0.145000,1057.4,295.1,1713.5,446.2,3061.5,202.9,985.1,1697.1,3043,173.5,56,-200
0.147000,1010.0,456.1,1638.6,548.9,3061.1,206.7,958.7,1686.9,3066.7,174.1,54.8,-213.2
0.149000,901.4,500.7,1579.6,526.0,3053.2,210.7,932.3,1676.5,3089.1,174.5,53.6,-214.8
0.151000,843.9,427.2,1605.1,457.9,3048.3,204.3,906.5,1666.2,3109.8,174.9,52.5,-209.9
0.153000,820.7,382.9,1651.4,366.0,3049.9,193.2,882.2,1656.4,3128.6,175.2,51.4,-203.3
0.155000,818.0,390.0,1664.6,294.7,3059.8,202.0,860.3,1647.5,3145,0,50.4,-200
0.157000,822.4,417.5,1649.3,255.2,3085.0,253.0,841.2,1639.6,3158.9,0,49.4,-200
0.159000,824.4,434.3,1628.8,229.1,3146.0,353.3,825.8,1633.2,3170,0,48.6,-200
0.161000,828.9,431.2,1625.1,212.9,3259.3,347.0,814.4,1628.5,3178.1,0,48.2,-200
0.163000,828.9,379.3,1640.9,200.4,3288.3,228.4,807.4,1625.5,3183,0,47.4,-200
0.165000,812.8,287.4,1662.8,193.2,3289.0,185.1,805,1624.6,3184.7,0,47.2,-200
