time,f1,b1,f2,b2,f3,b3,f1p,f2p,f3p,f0,intensity,harmonicity
0.025000,755.7,98.2,1694.9,185.1,2644.6,572.3,788.7,1652.4,2583.7,152.4,71.7,4
0.027000,762.8,100.6,1680.6,192.3,2615.4,550.7,789.4,1652.8,2583.7,152.1,71.5,4.9
0.029000,772.9,107.2,1670.6,193.0,2595.0,516.7,790.5,1653.6,2583.8,151.8,71.4,6
0.031000,785.9,118.2,1664.2,191.9,2579.2,488.7,792.1,1654.5,2583.6,151.5,71.2,7.2
0.033000,798.4,127.6,1660.8,190.0,2568.7,478.3,794.1,1655.5,2583.2,151.2,71,8.4
0.035000,807.6,131.9,1657.7,188.1,2560.4,485.9,796.5,1656.4,2582.2,150.9,70.7,9.3
0.037000,814.3,134.6,1652.1,189.1,2550.3,509.8,799.3,1657,2580.6,150.6,70.5,9.8
0.039000,819.3,136.8,1644.8,191.4,2539.9,539.3,802.4,1657.2,2578,150.3,70.3,10
0.041000,822.7,136.2,1639.0,191.2,2533.3,554.7,805.9,1656.9,2574.4,150.1,70.2,10.2
0.043000,825.5,134.4,1634.6,189.9,2528.5,549.4,809.7,1655.8,2569.4,149.8,70,10.5
0.045000,828.1,132.7,1630.5,189.0,2523.1,528.5,813.8,1653.9,2563.2,149.6,69.9,11.1
0.047000,830.0,129.4,1626.5,187.0,2521.1,497.3,818,1651.1,2555.4,149.4,69.8,12.2
0.049000,831.5,125.2,1622.3,185.1,2526.3,457.7,822.4,1647.4,2546.2,149.3,69.7,13.9
0.051000,833.7,122.6,1617.2,185.4,2536.5,416.3,826.8,1642.7,2535.6,149.1,69.5,15.6
0.053000,836.3,120.7,1613.2,185.5,2547.2,385.2,831.2,1637,2523.7,149.1,69.4,16.9
0.055000,838.4,119.2,1612.3,184.0,2556.4,370.5,835.6,1630.5,2510.7,149,69.3,17.2
0.057000,840.3,120.1,1613.7,184.1,2563.3,370.6,839.7,1623.3,2496.9,149.1,69.1,16.4
0.059000,842.3,122.2,1615.4,184.7,2565.3,378.8,843.7,1615.6,2482.7,149.1,69,14.6
0.061000,843.1,120.4,1616.1,180.8,2561.2,389.5,847.3,1607.6,2468.4,149.3,68.8,12.3
0.063000,842.4,115.0,1614.7,173.0,2548.5,408.7,850.5,1599.5,2454.4,149.4,68.5,10.2
0.065000,841.3,109.8,1610.4,166.4,2519.6,448.3,853.2,1591.7,2441.3,149.7,68.3,8.8
0.067000,841.7,106.3,1604.7,163.6,2469.6,496.7,855.5,1584.4,2429.4,150,68,7.9
0.069000,844.9,104.1,1599.0,163.3,2409.9,517.0,857.3,1577.8,2419.3,150.3,67.8,7.1
0.071000,849.6,104.4,1591.7,169.0,2350.1,514.0,858.5,1572.3,2411.3,150.7,67.5,6.8
0.073000,852.8,107.0,1581.6,183.3,2288.1,511.1,859.2,1568.1,2405.8,151.2,67.2,6.9
0.075000,853.6,109.1,1573.7,196.3,2250.5,510.9,859.4,1565.3,2403.2,151.7,67,7.6
0.077000,854.7,110.0,1572.8,198.0,2265.9,511.5,859.2,1564.2,2403.7,152.3,66.7,9.6
0.079000,856.7,111.4,1575.2,195.2,2317.8,505.4,858.7,1564.8,2407.4,152.9,66.4,12.8
0.081000,858.2,113.1,1577.8,195.0,2370.4,491.3,857.8,1567.2,2414.4,153.5,66.1,16.3
0.083000,858.7,115.3,1581.9,198.9,2414.3,477.6,856.9,1571.3,2424.5,154.2,65.9,18.8
0.085000,858.8,121.7,1588.5,211.0,2458.9,477.8,855.9,1577.1,2437.6,154.8,65.6,19.5
0.087000,859.7,130.4,1595.8,221.1,2501.7,475.4,855,1584.4,2453.5,155.6,65.4,17.2
0.089000,861.7,137.7,1600.7,213.7,2528.6,450.3,854.4,1593,2471.8,156.3,65.2,12.8
0.091000,862.9,147.4,1603.3,197.8,2541.8,422.9,854.2,1602.6,2492,157,64.9,7.6
0.093000,862.0,162.4,1605.8,187.4,2555.0,412.4,854.6,1613,2513.5,157.7,64.6,3.1
0.095000,860.1,175.3,1610.4,181.7,2573.1,406.4,855.6,1623.9,2535.9,158.4,64.3,0.9
0.097000,860.2,178.7,1616.4,175.3,2591.9,387.1,857.5,1634.8,2558.6,159.1,63.9,1.6
0.099000,861.2,174.5,1620.9,171.2,2609.7,364.9,860.3,1645.4,2580.8,159.8,63.4,4.3
0.101000,860.9,173.3,1623.3,178.4,2633.1,359.3,864.1,1655.5,2602.1,160.4,63,7.8
0.103000,861.2,178.9,1625.5,196.6,2662.4,365.2,868.9,1664.7,2621.9,161.1,62.5,10.9
0.105000,866.0,183.7,1631.6,214.9,2689.0,362.0,874.7,1672.8,2639.8,161.7,62.1,12.2
0.107000,878.2,174.9,1647.0,212.6,2697.1,328.6,881.5,1679.5,2655.2,162.2,61.7,14.4
0.109000,894.9,151.7,1667.3,185.1,2687.3,273.8,889.3,1684.8,2668.1,162.7,61.3,18.5
0.111000,909.6,125.5,1682.1,155.3,2672.8,224.2,897.9,1688.5,2678,163.2,60.9,20.3
0.113000,919.6,103.4,1690.4,138.1,2657.9,189.3,907.2,1690.6,2685.2,163.6,60.3,15.9
0.115000,926.8,86.8,1696.3,136.2,2639.2,164.6,916.9,1691.3,2689.4,164,59.7,1.1
0.117000,933.5,75.7,1703.4,152.3,2616.6,145.9,927,1690.7,2691.1,0,58.9,-30.1
0.119000,940.5,71.6,1715.3,188.3,2604.5,137.1,937.2,1689.1,2690.5,0,57.9,-75.3
0.121000,947.2,76.0,1730.5,228.1,2616.0,143.9,947.1,1686.6,2688,0,56.8,-124.9
0.123000,954.4,87.8,1737.2,248.0,2641.0,160.6,956.6,1683.8,2684.1,0,55.6,-169.6
0.125000,964.9,99.9,1735.2,263.4,2662.9,183.9,965.3,1680.9,2679.4,0,54.5,-200
0.127000,976.5,96.4,1730.0,300.5,2675.1,222.8,973.1,1678.4,2674.5,0,53.6,-212.9
0.129000,980.5,79.6,1712.7,359.0,2677.2,287.2,979.6,1676.7,2670.1,0,52.9,-214.5
0.131000,977.8,66.3,1680.1,384.5,2673.7,355.2,984.7,1676.2,2666.8,0,52.3,-209.7
0.133000,972.7,58.5,1659.1,335.7,2680.5,404.6,988.1,1677.3,2665.3,0,51.7,-203.2
0.135000,968.3,56.3,1670.5,260.3,2704.5,423.6,989.7,1680.3,2666,0,51.1,-200
0.137000,965.1,59.7,1694.7,203.9,2727.3,406.2,989.5,1685.5,2669.5,0,50.5,-200
0.139000,962.3,68.3,1710.8,177.3,2728.5,371.3,987.2,1693.1,2676.2,0,49.7,-200
0.141000,960.5,80.2,1707.3,175.9,2708.9,345.0,983,1703.2,2686.3,0,49,-200
0.143000,959.4,86.6,1684.2,185.2,2687.3,334.6,976.8,1715.8,2699.8,0,48.8,-200
0.145000,956.4,81.9,1661.4,192.6,2688.8,350.8,968.8,1731,2716.9,0,48.4,-200
0.147000,953.6,76.7,1659.3,201.6,2729.5,397.7,959.2,1748.4,2737.3,0,48.3,-200
0.149000,953.1,77.1,1675.2,215.1,2797.2,428.1,948.2,1767.9,2760.7,0,48.2,-200
0.151000,953.7,83.2,1697.4,243.8,2842.4,418.7,936,1789,2786.6,0,48.3,-200
0.153000,952.8,94.6,1735.9,308.9,2845.3,414.0,922.9,1811.5,2814.6,0,48.6,-200
0.155000,948.8,101.6,1813.8,385.1,2831.4,445.9,909.3,1834.7,2843.9,0,48.6,-200
0.157000,941.9,95.4,1927.1,403.0,2834.8,523.7,895.6,1858.1,2873.8,0,48.8,-200
0.159000,937.4,85.0,2013.3,367.9,2868.1,652.6,882,1881.1,2903.4,0,49,-200
0.161000,935.0,87.7,2049.4,366.5,2913.4,854.2,868.9,1903.2,2932.1,0,48.7,-200
0.163000,920.2,114.5,2056.8,427.4,2956.2,1120.1,856.8,1923.7,2958.9,0,47.3,-200
0.165000,875.6,158.8,2036.9,546.3,2967.5,1351.2,845.9,1942.2,2983.1,0,46.2,-200
0.167000,811.4,184.6,1966.8,648.5,2954.1,1258.5,836.5,1958.1,3004,0,46.5,-200
0.169000,762.9,204.5,1905.1,623.4,3003.7,903.3,828.9,1970.9,3021,0,48.5,-200
0.171000,740.5,270.2,1891.8,560.5,3043.1,647.3,823.3,1980.3,3033.5,0,50.5,-200
0.173000,755.5,408.3,1908.3,526.4,3064.2,549.7,819.9,1986.1,3041.1,0,52.1,-200
0.175000,817.4,577.7,1956.7,545.6,3082.0,602.1,818.8,1988.1,3043.7,0,53.3,-200
