time,f1,b1,f2,b2,f3,b3,f1p,f2p,f3p,f0,intensity,harmonicity
0.025000,663.8,91.0,1793.9,96.6,2905.4,111.3,672.4,1794.8,2868.3,168.6,68.6,12.2
0.027000,670.2,92.9,1793.9,102.1,2899.8,129.0,674.2,1794.1,2867.5,168.7,68.3,12.7
0.029000,677.3,97.7,1795.3,113.7,2884.8,149.5,677,1793.1,2866,168.9,68.1,13
0.031000,683.9,104.5,1794.0,129.3,2865.9,168.0,680.8,1791.6,2863.9,169.1,68,13.1
0.033000,689.1,111.3,1787.8,144.1,2849.7,182.2,685.6,1789.6,2860.9,169.3,67.9,13.1
0.035000,693.1,114.7,1781.4,149.2,2840.3,187.8,691,1787.2,2857.1,169.5,67.7,13
0.037000,697.6,114.0,1779.0,144.9,2833.4,184.5,697.1,1784.4,2852.3,169.7,67.7,12.4
0.039000,703.8,111.5,1780.1,136.7,2824.7,174.9,703.6,1781.1,2846.5,169.9,67.5,11.6
0.041000,711.7,110.3,1780.7,132.1,2813.2,166.3,710.4,1777.3,2839.8,170.1,67.4,10.6
0.043000,721.0,111.0,1778.0,136.2,2801.3,165.3,717.3,1773.2,2832.3,170.3,67.2,9.8
0.045000,729.0,114.6,1772.7,151.6,2795.2,176.3,724.1,1768.7,2824.1,170.5,67.1,9.5
0.047000,734.9,120.0,1767.1,176.0,2795.8,196.9,730.8,1764,2815.5,170.7,67,9.7
0.049000,739.2,124.0,1762.9,200.1,2802.0,218.7,737.2,1759.1,2806.7,170.8,66.9,10.2
0.051000,743.0,124.9,1759.9,211.6,2809.7,230.1,743.3,1754.1,2798.2,171,66.8,11
0.053000,747.5,123.8,1753.9,206.5,2812.9,227.0,749,1749.1,2790.3,171.2,66.8,11.7
0.055000,751.9,121.5,1742.9,186.7,2808.2,211.2,754.3,1744.3,2783.4,171.4,66.8,12.4
0.057000,755.3,118.1,1729.4,161.9,2798.8,190.9,759.1,1739.6,2777.8,171.5,66.8,12.9
0.059000,757.5,113.6,1718.8,143.2,2789.0,175.5,763.5,1735.3,2773.7,171.7,66.7,13.5
0.061000,759.6,109.3,1715.5,138.7,2783.2,172.6,767.6,1731.3,2771.3,171.8,66.6,14
0.063000,763.8,106.8,1720.2,151.0,2781.8,185.0,771.3,1727.7,2770.8,172,66.4,14.4
0.065000,770.4,107.8,1731.1,178.8,2785.3,209.7,774.7,1724.4,2771.9,172.1,66.2,14.8
0.067000,778.0,111.3,1740.7,210.5,2791.3,234.9,777.8,1721.6,2774.6,172.3,66,15.2
0.069000,785.0,116.1,1737.7,226.4,2793.2,245.5,780.8,1719.1,2778.4,172.4,65.7,15.5
0.071000,790.1,119.3,1724.9,222.6,2788.6,240.3,783.7,1716.9,2782.9,172.5,65.4,15.7
0.073000,793.9,120.6,1712.8,216.2,2782.3,229.0,786.4,1714.8,2787.7,172.7,65.2,15.9
0.075000,796.7,121.2,1706.2,217.8,2777.3,218.7,789.2,1712.7,2792,172.8,64.9,16.1
0.077000,799.0,121.1,1703.1,223.3,2772.0,207.5,791.9,1710.6,2795.2,172.9,64.6,16.2
0.079000,800.8,119.0,1702.0,224.3,2765.2,191.0,794.8,1708.3,2796.9,173.1,64.4,16.2
0.081000,801.7,116.2,1702.0,219.5,2759.2,172.9,797.8,1705.7,2796.6,173.2,64.1,16.2
0.083000,802.0,117.0,1702.1,213.9,2757.4,158.8,801.1,1702.8,2793.7,173.3,63.8,16.1
0.085000,802.6,124.8,1701.3,209.4,2760.7,154.0,804.6,1699.4,2788.3,173.4,63.5,16.1
0.087000,804.1,137.1,1697.1,202.4,2765.4,160.2,808.5,1695.5,2780.1,173.6,63.2,16.2
0.089000,806.2,147.7,1690.1,190.2,2769.5,179.7,812.9,1691.3,2769.4,173.7,62.9,16.4
0.091000,807.6,152.4,1685.4,171.6,2772.6,204.2,817.8,1686.7,2756.7,173.8,62.5,16.5
0.093000,808.5,153.9,1684.6,145.1,2774.8,224.3,823.4,1681.8,2742.3,174,62.2,16.4
0.095000,811.7,158.0,1684.4,121.2,2776.4,238.5,829.7,1676.8,2727.1,174.1,61.9,15.8
0.097000,823.0,168.6,1680.4,105.7,2772.1,261.7,836.8,1671.8,2711.9,174.2,61.7,14.5
0.099000,846.8,184.3,1670.2,99.6,2749.9,307.8,844.7,1667,2697.7,174.4,61.5,12.7
0.101000,871.4,191.3,1657.2,97.5,2707.2,353.2,853.7,1662.5,2685.3,174.5,61.3,10.6
0.103000,887.0,179.7,1645.3,91.1,2657.3,358.5,863.5,1658.6,2675.6,174.6,61.1,8.6
0.105000,894.9,161.3,1640.2,82.4,2635.8,326.2,874.3,1655.5,2669.5,174.8,60.8,7.1
0.107000,901.1,147.5,1643.0,75.7,2642.1,278.9,886,1653.1,2667.4,174.9,60.4,9.2
0.109000,907.8,139.3,1652.5,72.9,2657.6,226.5,898.5,1651.6,2669.9,175,59.8,14.9
0.111000,913.0,139.4,1665.0,75.8,2669.3,186.5,911.6,1651.1,2677,175.2,59.1,19.1
0.113000,916.6,149.4,1675.1,82.3,2675.3,157.6,925.2,1651.5,2688.6,175.3,58.1,17
0.115000,920.6,172.9,1674.3,88.3,2679.5,138.4,939,1652.8,2704.3,175.4,57.1,3.6
0.117000,931.8,220.2,1660.4,94.5,2688.8,129.4,952.8,1654.8,2723.4,175.5,56.1,-27.6
0.119000,954.5,296.9,1639.5,104.3,2710.3,140.8,966.3,1657.5,2745.1,175.6,55.2,-73.2
0.121000,977.0,345.7,1630.8,113.8,2751.1,174.2,979.1,1660.5,2768.3,175.7,54.3,-123.6
0.123000,991.4,292.1,1645.4,113.7,2817.4,185.9,991.1,1663.8,2791.7,175.8,53.5,-169.1
0.125000,1000.4,194.4,1668.2,105.6,2862.3,138.9,1001.8,1667.1,2814.3,175.9,53,-200
0.127000,1010.2,128.2,1685.5,102.7,2873.8,92.7,1011,1670.1,2834.7,176,52.2,-213
0.129000,1019.1,97.9,1691.5,102.6,2872.1,68.0,1018.4,1672.7,2851.8,176.1,51.5,-214.7
0.131000,1025.0,97.7,1682.2,91.4,2867.6,60.7,1023.9,1674.7,2864.8,176.1,50.8,-209.8
0.133000,1031.6,125.3,1670.0,70.0,2861.5,68.7,1027.3,1675.9,2872.9,176.2,49.7,-203.3
0.135000,1043.5,182.2,1667.2,57.6,2852.7,98.9,1028.4,1676.4,2875.7,176.2,48.7,-200
