time,f1,b1,f2,b2,f3,b3,f1p,f2p,f3p,f0,intensity,harmonicity
0.025000,677.9,83.0,1770.6,114.4,2707.6,251.9,686.4,1791.8,2696.4,206.7,74.6,12.5
0.027000,686.0,86.7,1770.9,116.0,2711.0,270.8,688.3,1787.7,2697.6,207.2,74.5,12.9
0.029000,692.7,89.9,1771.2,129.3,2714.0,308.3,691.2,1781.3,2699.4,207.8,74.4,13
0.031000,697.5,91.6,1770.7,152.7,2713.3,348.5,695,1772.6,2701.7,208.5,74.4,12.9
0.033000,702.4,92.3,1768.7,177.7,2707.4,366.3,699.4,1762.1,2704.3,209.2,74.3,12.7
0.035000,708.0,93.3,1764.2,197.1,2699.0,354.3,704.1,1750.2,2707,210,74.2,12.6
0.037000,713.2,95.0,1755.3,210.4,2692.1,330.2,708.9,1737.5,2709.5,210.9,74.2,12.6
0.039000,717.2,96.6,1739.1,220.8,2687.8,308.2,713.4,1724.4,2711.5,211.8,74.2,12.5
0.041000,719.4,97.2,1718.9,226.0,2688.0,295.3,717.4,1711.3,2712.9,212.8,74.2,12.4
0.043000,720.0,96.5,1701.8,226.4,2694.6,292.6,720.7,1698.8,2713.6,213.9,74.3,12.4
0.045000,719.5,95.3,1690.3,224.6,2707.2,299.9,723.2,1687.1,2713.5,215,74.3,12.4
0.047000,718.7,94.3,1681.5,219.8,2720.7,311.5,724.9,1676.5,2712.5,216.2,74.4,12.7
0.049000,719.0,93.4,1671.8,209.7,2729.5,320.0,725.9,1667.2,2710.7,217.4,74.4,13.2
0.051000,721.2,92.5,1662.1,196.7,2727.0,317.3,726.3,1659.4,2708.3,218.8,74.4,13.7
0.053000,724.9,91.8,1654.3,186.4,2714.2,297.0,726.2,1652.9,2705.4,220.2,74.4,14
0.055000,728.5,91.3,1647.7,183.9,2698.2,255.5,726,1647.7,2702.3,221.6,74.4,14
0.057000,730.8,91.3,1641.2,188.6,2686.6,204.5,726,1643.6,2699.3,223.2,74.3,13.6
0.059000,732.3,91.6,1634.0,197.6,2681.1,155.8,726.4,1640.5,2696.5,224.7,74.3,12.8
0.061000,733.6,91.7,1627.7,209.2,2682.3,121.1,727.4,1638.1,2694.2,226.4,74.2,12
0.063000,734.9,91.8,1623.1,227.4,2688.7,101.3,729.2,1636.3,2692.7,228,74.1,11.1
0.065000,735.9,93.3,1619.7,258.3,2698.6,95.2,732,1634.8,2692,229.8,74,10.3
0.067000,736.6,96.9,1617.2,299.2,2709.7,101.2,735.7,1633.5,2692.2,231.5,73.8,9.7
0.069000,737.6,102.8,1616.8,342.3,2721.0,117.5,740.3,1632.4,2693.3,233.3,73.6,9.1
0.071000,740.2,109.9,1619.9,370.9,2728.5,139.8,745.6,1631.5,2695.2,235.1,73.4,8.6
0.073000,744.9,117.3,1625.1,378.2,2726.1,162.4,751.5,1630.7,2697.8,236.9,73.1,8.1
0.075000,751.3,123.3,1631.3,360.8,2710.8,173.0,757.6,1630.4,2700.8,238.6,72.8,7.8
0.077000,757.9,126.2,1642.2,322.8,2694.7,161.2,763.5,1630.5,2704,240.4,72.5,7.6
0.079000,764.3,125.9,1658.9,273.1,2689.5,135.6,769.1,1631.4,2707.2,242.2,72.1,7.5
0.081000,770.2,121.5,1672.5,229.1,2691.7,112.0,774,1633.2,2710.1,243.9,71.8,7.5
0.083000,775.9,114.3,1678.9,204.1,2692.4,96.1,778,1636.3,2712.5,245.6,71.5,7.7
0.085000,781.4,108.7,1679.1,203.6,2688.2,88.7,781,1640.7,2714.3,247.3,71.2,8.2
0.087000,786.4,106.7,1673.8,226.7,2681.7,90.8,783,1646.6,2715.5,248.9,70.9,9.2
0.089000,790.5,104.9,1656.9,275.1,2676.5,111.1,784.1,1654.1,2716,250.4,70.6,10.7
0.091000,792.7,101.6,1624.7,340.1,2678.9,168.0,784.6,1663.2,2716.1,251.9,70.2,12.3
0.093000,795.3,101.2,1606.7,394.7,2701.4,260.8,785,1673.7,2715.9,253.3,69.9,13.7
0.095000,798.7,103.1,1629.3,410.1,2742.7,316.8,785.6,1685.6,2715.9,254.7,69.5,14.9
0.097000,800.5,107.2,1665.8,392.4,2762.2,297.4,787.1,1698.5,2716.2,255.9,69,15.8
0.099000,799.9,116.4,1697.8,364.7,2759.2,253.9,790,1712.1,2717.5,257.1,68.4,16.6
0.101000,797.2,131.2,1719.2,336.5,2749.4,221.1,795,1726,2720,258.2,67.8,17.1
0.103000,795.1,153.6,1740.6,311.6,2746.3,211.0,802.6,1739.8,2724.3,259.2,67.1,17.2
0.105000,798.2,189.3,1772.7,290.6,2757.2,217.0,813.3,1753.2,2730.6,260.2,66.2,16.8
0.107000,808.5,232.4,1801.9,266.8,2771.5,215.9,827.4,1765.7,2739.1,261.1,65.3,18.7
0.109000,826.5,276.2,1819.3,241.1,2778.9,197.8,844.9,1777.1,2750.1,261.9,64.2,23
0.111000,846.6,315.1,1826.0,223.9,2779.3,170.0,865.9,1787,2763.4,262.7,63,25.4
0.113000,861.1,349.6,1824.6,221.2,2775.9,146.5,890.1,1795.3,2779,263.3,61.7,21.4
0.115000,870.4,409.2,1813.4,255.9,2773.2,144.2,917,1802,2796.4,264,60.5,6.6
0.117000,903.2,595.4,1786.1,379.1,2776.5,182.9,945.8,1807,2815.4,264.6,59.1,-25.5
0.119000,1012.2,839.7,1743.1,508.5,2774.4,238.9,975.7,1810.5,2835.1,265.1,57.8,-71.8
0.121000,1122.3,789.4,1759.7,524.9,2778.4,253.8,1005.7,1812.6,2855.1,265.6,56.6,-122.8
0.123000,1137.2,626.1,1806.4,474.6,2796.4,240.5,1034.7,1813.6,2874.5,266.1,55.5,-168.8
0.125000,1111.1,477.2,1843.3,406.2,2831.7,218.1,1061.7,1813.7,2892.6,266.6,54.5,-200
0.127000,1087.3,362.6,1863.2,344.6,2882.6,187.9,1085.4,1813.3,2908.5,267,53.5,-213.2
0.129000,1075.1,294.1,1858.5,287.6,2939.1,149.0,1105.1,1812.7,2921.8,267.4,52.5,-214.9
0.131000,1077.1,289.8,1827.8,245.6,2980.4,123.1,1119.7,1812,2931.7,267.8,51.6,-209.9
0.133000,1088.6,351.0,1789.0,232.6,3008.3,124.7,1128.8,1811.5,2937.8,268.1,50.4,-203.3
0.135000,1088.8,446.3,1753.7,235.9,3033.5,152.8,1131.8,1811.3,2939.8,268.5,49.6,-200
