time,f1,b1,f2,b2,f3,b3,f1p,f2p,f3p,f0,intensity,harmonicity
0.025000,648.6,74.7,1804.4,266.8,2351.6,384.0,656.8,1776.3,2285.2,163,72.7,1.3
0.027000,654.6,73.5,1781.2,276.7,2314.9,396.7,658.2,1774.9,2286.3,162.9,72.8,2.8
0.029000,660.5,73.2,1765.2,285.7,2263.5,422.8,660.5,1772.7,2288.2,162.7,72.8,5.3
0.031000,665.6,73.8,1758.7,297.7,2223.4,448.7,663.5,1769.7,2290.7,162.6,72.9,8.2
0.033000,670.2,75.4,1756.9,302.7,2224.2,472.3,667.2,1765.9,2293.8,162.4,73.1,10.7
0.035000,674.6,77.7,1753.9,297.5,2258.1,481.2,671.4,1761.5,2297.6,162.3,73.2,12
0.037000,679.1,79.5,1749.8,284.3,2288.8,472.7,675.9,1756.6,2301.8,162.1,73.3,11.6
0.039000,684.0,80.9,1746.2,263.9,2303.8,458.3,680.7,1751.3,2306.3,162,73.3,10.1
0.041000,688.7,82.6,1743.2,243.2,2311.7,444.7,685.5,1745.7,2311.2,161.8,73.4,8.1
0.043000,692.4,84.9,1740.7,226.1,2326.5,438.9,690.3,1739.8,2316.2,161.7,73.3,6.5
0.045000,694.6,89.1,1737.5,217.4,2354.9,452.2,694.8,1733.8,2321.1,161.5,73.3,5.7
0.047000,696.7,95.4,1729.8,216.6,2392.1,487.1,699.1,1727.7,2325.8,161.4,73.2,6.2
0.049000,700.0,100.6,1718.4,213.3,2417.2,533.4,702.9,1721.5,2330.2,161.3,73.1,7.4
0.051000,704.4,102.7,1711.1,200.5,2408.1,568.9,706.4,1715.2,2334,161.2,73.1,9
0.053000,709.3,104.2,1709.0,184.0,2373.8,567.8,709.4,1708.9,2337,161.1,73.1,10.5
0.055000,713.3,106.6,1708.8,172.0,2346.4,542.2,712,1702.5,2339.2,161,73,11.7
0.057000,715.7,110.5,1708.6,167.8,2333.9,531.7,714.2,1695.9,2340.3,161,73,12.5
0.059000,716.6,116.7,1706.0,172.4,2324.9,548.7,716.2,1689.2,2340.3,161,72.9,13.3
0.061000,716.9,123.1,1699.2,182.8,2306.5,571.9,718,1682.3,2339.1,161,72.8,13.9
0.063000,717.1,128.2,1686.1,195.0,2274.2,568.5,719.6,1675.1,2336.7,161,72.6,14.2
0.065000,717.5,132.8,1667.0,204.6,2243.2,526.9,721.2,1667.8,2333.1,161.1,72.3,14
0.067000,718.3,139.2,1646.1,207.9,2228.2,469.8,722.8,1660.2,2328.3,161.2,72.1,13.2
0.069000,720.4,148.0,1629.3,205.4,2230.5,420.0,724.5,1652.5,2322.6,161.4,71.8,11.8
0.071000,723.5,160.5,1618.3,201.9,2244.0,387.8,726.2,1644.6,2316,161.5,71.5,10.1
0.073000,727.3,176.6,1612.7,198.4,2267.7,371.5,728.2,1636.8,2308.9,161.8,71.1,8.4
0.075000,730.7,191.4,1614.3,193.2,2303.9,364.6,730.1,1629,2301.4,162,70.6,7
0.077000,733.3,205.2,1621.8,188.1,2355.4,349.1,732.1,1621.4,2293.9,162.3,70.1,5.8
0.079000,736.0,221.0,1627.9,190.4,2403.5,319.5,734,1614.2,2286.7,0,69.7,4.6
0.081000,740.8,232.1,1623.8,200.5,2419.9,307.9,735.7,1607.5,2280.1,0,69.3,3.6
0.083000,747.8,228.8,1610.4,203.0,2404.0,325.1,736.9,1601.3,2274.4,0,69,2.7
0.085000,753.1,217.0,1600.1,193.6,2370.7,355.1,737.7,1595.9,2269.7,0,68.8,2.2
0.087000,755.1,209.2,1598.6,184.0,2337.3,391.7,737.7,1591.3,2266.4,0,68.6,2.2
0.089000,752.9,211.7,1604.8,181.1,2313.3,447.1,736.8,1587.6,2264.6,0,68.4,2.5
0.091000,742.5,229.0,1614.3,189.4,2297.7,549.0,734.8,1584.7,2264.3,0,68.1,3
0.093000,721.7,262.9,1619.3,214.3,2274.6,765.3,731.6,1582.5,2265.6,0,68,3.6
0.095000,702.7,285.2,1602.5,244.4,2189.5,1052.0,727,1581.1,2268.5,0,67.8,3.9
0.097000,687.1,260.9,1559.8,253.4,2066.2,1023.9,720.9,1580.2,2272.7,0,67.6,4.2
0.099000,680.4,221.3,1529.8,235.6,2033.1,892.9,713.4,1579.7,2278.1,0,67.3,4.6
0.101000,681.7,197.0,1527.9,216.2,2046.3,884.5,704.3,1579.3,2284.5,0,66.8,4.9
0.103000,682.9,188.0,1541.5,200.1,2110.7,978.6,693.7,1578.8,2291.4,0,66.1,4.9
0.105000,674.2,204.8,1558.1,190.7,2268.3,1030.9,681.6,1577.9,2298.6,0,65.2,4.6
0.107000,656.2,297.0,1573.8,183.5,2432.0,814.5,668.3,1576.3,2305.7,0,64.3,7
0.109000,657.3,523.3,1583.6,173.2,2475.8,649.1,653.8,1573.8,2312.4,0,63.4,12
0.111000,686.1,734.3,1585.7,167.2,2487.6,623.0,638.3,1570.2,2318.2,0,62.6,15.3
0.113000,698.5,750.3,1584.5,155.7,2493.0,610.1,622,1565.2,2323,0,61.9,12.3
0.115000,679.3,661.5,1581.9,142.1,2492.2,583.6,605.3,1558.9,2326.4,0,61.3,-1.3
0.117000,631.4,576.1,1578.7,135.3,2480.6,559.3,588.2,1551.1,2328.3,0,60.6,-31.9
0.119000,559.9,494.4,1574.9,145.6,2441.4,556.0,571.1,1541.9,2328.7,0,59.7,-76.5
0.121000,507.7,421.7,1567.5,191.7,2366.1,576.3,554.2,1531.3,2327.4,0,59.1,-125.6
0.123000,493.2,421.5,1545.1,295.4,2263.5,611.6,537.8,1519.6,2324.7,170.3,58.2,-169.9
0.125000,493.9,523.1,1507.2,410.8,2170.7,621.8,522.1,1507,2320.5,170.4,57.5,-200
0.127000,474.7,747.0,1453.1,510.6,2106.2,587.6,507.3,1493.9,2315.3,170.4,57,-212.7
0.129000,405.1,1021.3,1393.3,535.1,2088.2,518.4,493.5,1480.5,2309.2,170.4,56.3,-214.3
0.131000,418.9,994.8,1395.6,508.6,2120.8,479.3,481.1,1467.4,2302.6,170.3,55.6,-209.5
0.133000,498.1,709.5,1444.8,460.2,2194.3,446.7,470,1454.9,2295.9,170.2,55.1,-203.2
0.135000,523.7,518.5,1475.0,410.4,2270.8,382.5,460.4,1443.5,2289.4,170.1,54.8,-200
0.137000,521.6,482.0,1469.1,411.3,2323.4,314.6,452.5,1433.5,2283.6,169.9,54.7,-200
0.139000,501.4,556.2,1435.3,443.7,2356.6,256.2,446.2,1425.4,2278.6,169.8,54.3,-200
0.141000,463.3,673.2,1407.2,465.3,2376.2,210.0,441.7,1419.3,2274.9,169.6,54.1,-200
0.143000,417.0,794.9,1416.2,487.0,2381.1,186.1,439,1415.6,2272.6,169.4,53.8,-200
0.145000,384.3,909.4,1448.9,515.0,2373.3,187.9,438.1,1414.4,2271.8,169.2,52.8,-200
