time,f1,b1,f2,b2,f3,b3,f1p,f2p,f3p,f0,intensity,harmonicity
0.026000,700.9,53.9,1895.0,232.4,1981.8,1978.4,698.2,1881.5,1885.3,142.9,73.8,5.4
0.028000,709.0,51.0,1885.3,233.5,2019.0,1875.3,700.6,1879.8,1893.7,142.5,73.6,5.1
0.030000,713.8,49.2,1881.2,233.7,2009.0,1735.7,704.5,1876.8,1907.6,142.2,73.4,4.7
0.032000,717.4,50.2,1882.5,245.5,1937.6,1527.4,709.8,1872.7,1926.4,141.9,73.2,4.3
0.034000,721.5,53.5,1862.3,1348.1,1885.6,262.6,716.3,1867.4,1949.8,141.6,73,3.9
0.036000,727.3,56.6,1830.8,1327.7,1882.3,262.9,723.8,1861.1,1977.2,141.3,72.7,3.6
0.038000,734.8,59.5,1841.4,1490.6,1873.0,248.1,731.9,1853.7,2007.9,141.1,72.3,3.3
0.040000,744.2,64.9,1863.2,239.5,1879.3,1792.9,740.5,1845.3,2041.2,140.8,71.9,2.9
0.042000,753.8,71.1,1851.7,246.4,1948.6,2123.2,749.2,1835.9,2076.3,140.6,71.5,2.7
0.044000,760.6,72.9,1835.5,257.2,2052.0,2371.5,757.7,1825.7,2112.4,140.4,71.1,2.6
0.046000,764.7,70.8,1813.8,258.6,2181.4,2619.9,765.8,1814.8,2148.7,140.3,70.8,2.8
0.048000,767.8,69.1,1793.6,249.1,2287.9,3002.2,773.3,1803.2,2184.6,140.2,70.6,3.1
0.050000,770.4,67.9,1779.8,240.2,2325.5,3335.4,779.8,1791,2219.3,140.1,70.5,3.6
0.052000,771.7,67.3,1772.8,248.3,2290.0,3136.2,785.2,1778.5,2252.3,140.1,70.4,4.3
0.054000,773.2,70.0,1767.4,281.6,2261.1,2643.3,789.5,1765.7,2283,140.2,70.3,5.3
0.056000,775.8,75.6,1756.0,327.1,2311.1,2247.4,792.5,1752.8,2311.1,140.3,70.3,6.8
0.058000,778.2,77.5,1738.2,340.3,2483.5,496.4,794.2,1740,2336.3,140.5,70.3,9
0.060000,779.6,75.4,1717.7,318.1,2439.4,518.2,794.8,1727.4,2358.5,140.8,70.3,11.5
0.062000,780.1,73.6,1697.5,287.6,2393.2,495.5,794.2,1715.2,2377.5,141.1,70.4,13.9
0.064000,780.4,72.6,1683.5,266.5,2367.4,471.3,792.6,1703.6,2393.6,141.5,70.5,15.7
0.066000,781.2,71.1,1678.1,258.9,2360.4,457.3,790.3,1692.7,2406.8,141.9,70.5,16.4
0.068000,783.1,71.4,1678.3,266.5,2367.3,447.8,787.5,1682.7,2417.5,142.4,70.6,16.3
0.070000,786.2,75.1,1678.9,281.6,2381.1,434.6,784.4,1673.8,2425.9,143,70.6,15.7
0.072000,789.0,78.9,1677.8,283.1,2396.6,411.8,781.4,1666,2432.6,143.7,70.6,14.6
0.074000,790.3,81.1,1675.6,263.5,2412.7,381.7,778.7,1659.5,2437.9,144.4,70.6,13.2
0.076000,790.1,84.3,1671.2,238.8,2428.3,357.0,776.7,1654.4,2442.3,145.2,70.6,11.6
0.078000,789.7,88.8,1665.7,226.0,2438.9,352.2,775.5,1650.7,2446.2,146.1,70.5,9.3
0.080000,791.3,91.8,1662.1,224.2,2447.0,363.1,775.4,1648.4,2450,147,70.5,6.6
0.082000,795.6,94.6,1661.2,230.1,2458.5,378.2,776.7,1647.6,2454.2,148,70.5,4
0.084000,801.9,99.5,1661.3,239.1,2472.4,382.1,779.4,1648.2,2458.9,149,70.4,2.1
0.086000,806.8,104.8,1661.3,244.2,2481.1,368.3,783.8,1650.2,2464.5,150,70.3,1.4
0.088000,807.4,108.8,1660.9,246.1,2482.1,353.2,789.8,1653.4,2471.2,151.1,70.2,1.8
0.090000,806.3,115.1,1659.6,252.8,2480.6,347.1,797.5,1657.7,2479,152.3,70,2.9
0.092000,809.0,124.9,1657.8,266.0,2483.3,346.6,806.9,1663.1,2487.9,153.4,69.7,4.2
0.094000,820.2,135.5,1658.7,282.6,2496.2,338.8,817.7,1669.2,2498,154.6,69.4,5.1
0.096000,842.9,145.9,1665.1,305.2,2517.5,313.3,829.8,1676,2509.1,155.8,69,5.3
0.098000,871.5,152.1,1675.4,331.1,2535.0,277.4,843.1,1683.2,2520.9,157,68.6,4.9
0.100000,896.0,153.5,1684.5,353.9,2544.8,246.4,857.3,1690.6,2533.4,158.2,68.1,4.2
0.102000,906.2,161.2,1686.1,370.7,2549.7,232.1,872.2,1698.1,2546.3,159.4,67.5,3.5
0.104000,900.7,184.9,1681.1,382.0,2554.1,235.6,887.3,1705.3,2559.3,160.6,67,3
0.106000,882.0,224.9,1676.9,389.9,2562.2,252.7,902.6,1712,2572.2,161.8,66.5,3.1
0.108000,857.0,266.9,1681.4,398.9,2574.5,275.7,917.5,1718.2,2584.7,163,66.1,3.6
0.110000,832.1,302.3,1703.1,404.6,2592.1,296.0,932,1723.5,2596.8,164.1,65.7,4.4
0.112000,814.9,326.0,1743.3,377.2,2616.3,302.1,945.6,1727.9,2608.2,165.2,65.4,5.2
0.114000,808.8,356.8,1772.8,303.8,2638.4,285.3,958.3,1731.1,2618.9,166.2,65.2,5.7
0.116000,822.9,447.6,1764.4,234.7,2645.8,268.9,969.7,1733.2,2628.8,167.3,65.1,5.8
0.118000,894.4,575.3,1739.9,203.2,2646.9,269.9,979.8,1733.9,2638,168.2,65,5.5
0.120000,1020.2,600.8,1726.5,193.5,2654.7,264.1,988.3,1733.3,2646.7,169.1,64.9,4.9
0.122000,1108.0,525.9,1725.6,190.2,2664.9,247.7,995.4,1731.3,2654.9,170,64.8,4.3
0.124000,1135.9,452.9,1727.5,187.0,2671.3,236.1,1000.8,1728,2663,170.7,64.5,3.9
0.126000,1126.4,404.0,1727.5,189.1,2673.8,242.3,1004.8,1723.3,2671.1,171.5,64.1,4.7
0.128000,1104.5,378.2,1726.7,204.7,2674.7,276.5,1007.2,1717.4,2679.5,172.1,63.4,10.6
0.130000,1087.1,370.2,1728.0,235.2,2678.0,338.1,1008.3,1710.3,2688.6,172.8,62.6,17.4
0.132000,1076.6,365.7,1732.1,259.3,2671.8,376.3,1008.2,1702.1,2698.7,173.3,61.5,20.1
0.134000,1064.9,362.6,1731.6,260.2,2647.6,375.5,1007,1693,2710,173.8,60.3,13.7
0.136000,1052.0,394.2,1719.7,255.0,2635.0,385.1,1004.8,1683.1,2722.7,174.2,59,-7.6
0.138000,1042.9,458.4,1693.2,247.0,2664.3,410.7,1002,1672.5,2737.1,174.6,57.7,-47.4
0.140000,1034.5,513.4,1656.1,228.0,2744.9,399.7,998.5,1661.5,2753.3,175,56.5,-97.2
0.142000,1015.0,556.0,1617.7,206.7,2825.6,332.3,994.7,1650.1,2771.3,175.3,55.3,-146.9
0.144000,982.7,626.5,1587.1,193.1,2867.5,276.7,990.7,1638.6,2791,175.5,54.3,-186.8
0.146000,945.4,735.5,1568.8,184.6,2879.7,255.9,986.7,1627.1,2812.5,175.7,53.2,-208.3
0.148000,920.3,863.4,1563.4,184.5,2877.8,263.7,982.7,1615.7,2835.3,175.9,52,-215.1
0.150000,903.6,992.7,1565.1,200.4,2876.7,306.7,978.8,1604.6,2859.3,176,51.2,-212.8
0.152000,877.9,985.9,1576.5,233.6,2886.6,388.8,975.3,1594,2884.1,176.1,49.9,-206.5
0.154000,862.4,782.6,1604.0,264.2,2919.4,489.3,972.1,1583.9,2909.1,176.2,48.8,-200.9
0.156000,861.2,586.5,1634.8,264.5,2983.4,585.0,969.2,1574.4,2934.1,176.3,48,-200
0.158000,860.5,497.2,1635.3,250.3,3036.8,708.8,966.7,1565.8,2958.4,176.3,46.7,-200
0.160000,858.3,490.5,1592.2,240.2,2997.1,882.7,964.6,1557.9,2981.4,0,45.7,-200
0.162000,838.5,525.5,1528.7,210.6,2881.9,962.0,962.9,1551,3002.7,0,45.5,-200
0.164000,806.0,595.8,1489.5,175.3,2835.6,971.7,961.5,1545,3021.8,0,45.9,-200
0.166000,782.3,811.8,1480.4,171.4,2948.5,1116.5,960.4,1540.1,3038.1,0,46.7,-200
0.168000,994.0,1345.8,1490.3,208.5,3144.4,127.6,959.6,1536.2,3051.2,0,47.3,-200
0.170000,1254.1,850.6,1524.7,292.3,3112.9,109.4,959,1533.4,3060.8,0,48.2,-200
0.172000,1221.4,546.4,1589.0,314.5,3093.5,99.3,958.7,1531.7,3066.7,0,48.5,-200
0.174000,1179.5,484.3,1605.6,299.8,3083.6,108.5,958.6,1531.2,3068.7,0,48.3,-200
