time,f1,b1,f2,b2,f3,b3,f1p,f2p,f3p,f0,intensity,harmonicity
0.026000,650.8,113.8,1716.2,292.7,2796.9,286.2,680.5,1729.6,2827.9,169,71.8,12.8
0.028000,659.1,112.0,1724.6,283.4,2809.6,281.8,680.9,1729.9,2826.8,168.9,71.8,13.9
0.030000,667.6,112.0,1731.6,263.7,2811.9,272.3,681.7,1730.3,2825,168.7,71.7,15.2
0.032000,676.9,114.2,1738.1,241.9,2803.7,266.6,682.7,1730.8,2822.5,168.5,71.7,16.4
0.034000,685.1,116.2,1744.6,226.3,2795.1,264.4,684,1731.5,2819.4,168.3,71.6,17.3
0.036000,691.2,115.6,1751.7,219.6,2794.5,258.9,685.7,1732.1,2815.7,168.1,71.6,17.7
0.038000,694.7,113.1,1757.5,224.8,2801.0,249.4,687.6,1732.6,2811.6,167.9,71.5,17.6
0.040000,697.8,111.0,1758.1,240.6,2808.0,237.4,689.7,1733,2807,167.7,71.5,17.2
0.042000,701.7,110.7,1748.1,256.6,2812.5,223.4,692.2,1733.1,2802.1,167.4,71.4,16.6
0.044000,706.1,112.4,1730.2,258.0,2816.5,208.2,694.8,1733,2796.9,167.2,71.3,16.1
0.046000,711.5,114.7,1714.3,243.9,2821.8,195.9,697.7,1732.4,2791.7,167,71.2,15.8
0.048000,715.7,115.4,1709.5,233.4,2824.7,194.0,700.8,1731.4,2786.3,166.8,71.1,15.5
0.050000,717.4,115.1,1712.4,241.0,2820.9,201.8,704.1,1729.9,2781.1,166.6,71,15.1
0.052000,717.4,114.4,1716.2,263.4,2810.2,209.9,707.4,1727.9,2775.9,166.4,70.9,14.9
0.054000,718.0,114.6,1717.4,283.7,2797.8,209.7,710.9,1725.2,2771,166.2,70.8,14.8
0.056000,719.5,116.9,1716.9,291.8,2785.8,201.5,714.4,1722.1,2766.3,166,70.7,15
0.058000,722.0,120.6,1714.4,286.4,2775.9,191.8,718,1718.4,2762,165.8,70.5,15.5
0.060000,725.2,123.9,1708.6,274.7,2765.9,187.7,721.5,1714.1,2758.1,165.6,70.4,16.2
0.062000,727.2,126.4,1699.7,265.9,2755.0,196.1,724.9,1709.4,2754.5,165.4,70.3,16.8
0.064000,726.6,127.2,1689.5,262.9,2744.1,215.0,728.1,1704.3,2751.4,165.3,70.2,17.4
0.066000,724.8,125.8,1679.1,261.9,2735.9,232.3,731.2,1699,2748.7,165.1,70.1,17.6
0.068000,724.0,124.1,1671.4,260.0,2732.9,233.8,734,1693.4,2746.4,165,70,17.5
0.070000,726.5,124.1,1666.5,254.0,2731.2,220.2,736.6,1687.8,2744.5,164.9,70,17.4
0.072000,732.0,125.5,1664.4,239.4,2728.8,202.5,738.8,1682.2,2742.9,164.8,69.9,17.1
0.074000,737.8,128.0,1664.9,216.7,2727.7,191.2,740.7,1676.7,2741.7,164.7,69.7,16.8
0.076000,741.9,132.1,1669.9,192.0,2729.6,192.1,742.3,1671.6,2740.8,164.6,69.6,16.4
0.078000,743.1,136.9,1680.9,178.8,2732.9,210.8,743.4,1666.9,2740,164.5,69.5,15.8
0.080000,741.4,141.8,1696.1,180.9,2735.4,251.3,744.2,1662.7,2739.3,164.5,69.3,15.2
0.082000,737.6,144.3,1707.5,193.9,2737.5,303.7,744.6,1659.2,2738.8,164.4,69.2,14.6
0.084000,734.7,142.2,1707.9,205.4,2738.8,343.5,744.7,1656.3,2738.2,164.4,69.1,14.3
0.086000,734.1,136.9,1696.6,207.0,2734.0,354.1,744.5,1654.2,2737.5,164.4,69,14.4
0.088000,735.8,132.2,1680.8,197.9,2722.1,330.3,744,1653,2736.7,164.4,68.8,14.9
0.090000,739.5,129.3,1667.5,183.1,2710.4,285.4,743.4,1652.5,2735.7,164.4,68.7,15.7
0.092000,744.4,129.7,1660.0,168.0,2704.9,243.7,742.6,1652.9,2734.4,164.5,68.6,16.6
0.094000,748.5,132.0,1656.2,154.5,2703.7,220.5,741.8,1654.1,2732.8,164.5,68.4,17.4
0.096000,750.5,133.0,1653.4,143.1,2705.3,219.0,741,1656,2731,164.6,68.2,18
0.098000,749.8,131.5,1650.7,137.3,2709.2,240.5,740.4,1658.6,2728.8,164.7,68,18.7
0.100000,747.3,129.1,1647.3,138.5,2716.6,285.5,740,1661.7,2726.2,164.7,67.9,19.4
0.102000,744.6,127.7,1645.4,145.6,2728.1,345.1,740,1665.4,2723.4,164.8,67.7,20
0.104000,742.5,129.3,1647.3,155.1,2742.6,403.9,740.5,1669.4,2720.3,165,67.5,20.3
0.106000,741.0,135.9,1654.0,165.3,2757.3,453.7,741.5,1673.6,2716.9,165.1,67.2,20.1
0.108000,741.0,146.7,1662.9,172.5,2762.8,468.7,743.2,1678,2713.4,165.2,67,19.5
0.110000,743.2,161.4,1671.7,176.8,2757.2,439.6,745.6,1682.3,2709.7,165.4,66.7,18.5
0.112000,745.6,177.9,1677.1,181.1,2748.0,392.8,748.8,1686.5,2706.1,165.6,66.3,17.5
0.114000,746.9,190.0,1677.9,183.6,2739.0,357.1,752.8,1690.4,2702.5,165.7,66,16.3
0.116000,748.1,193.8,1674.6,179.2,2725.9,332.2,757.8,1694,2699,165.9,65.6,15.2
0.118000,748.5,191.9,1669.0,173.5,2706.5,320.3,763.7,1697.2,2695.9,166.1,65.2,13.9
0.120000,746.7,194.6,1666.4,179.1,2676.8,322.8,770.6,1699.9,2693.2,166.3,64.8,12.5
0.122000,748.8,210.6,1678.5,197.5,2647.2,327.9,778.4,1702.1,2690.9,166.6,64.3,11.1
0.124000,763.9,237.2,1705.9,204.6,2641.6,322.3,787.1,1703.8,2689.3,166.8,63.9,9.9
0.126000,799.0,266.3,1726.7,180.7,2660.1,308.6,796.6,1705.1,2688.4,167,63.5,8.8
0.128000,849.3,273.9,1725.7,145.2,2682.9,300.9,806.9,1705.9,2688.3,167.2,63.1,7.9
0.130000,897.7,248.7,1717.8,114.1,2705.0,309.8,817.9,1706.5,2689.2,167.5,62.7,7
0.132000,923.4,219.0,1713.2,94.4,2725.6,335.4,829.5,1706.8,2691.1,167.7,62.3,6.2
0.134000,929.5,204.9,1714.1,84.5,2742.5,354.7,841.5,1707.1,2694.1,167.9,61.7,5.6
0.136000,921.9,207.4,1719.7,81.2,2749.7,340.9,853.9,1707.4,2698.2,168.2,61,6.1
0.138000,901.8,224.5,1727.1,84.2,2743.2,302.7,866.5,1707.9,2703.5,168.4,60.1,11.3
0.140000,867.7,253.3,1733.9,97.2,2725.6,270.3,879.1,1708.7,2710,168.6,59.1,17.5
0.142000,827.8,283.3,1737.3,128.8,2696.5,265.1,891.6,1710.1,2717.7,168.8,58,19.7
0.144000,799.5,305.2,1733.5,171.0,2659.7,280.7,903.9,1712.2,2726.6,169,56.8,12.9
0.146000,794.1,324.3,1721.0,182.0,2628.7,304.0,915.9,1715.2,2736.8,169.2,55.6,-8.6
0.148000,815.6,341.9,1714.9,151.7,2627.2,338.6,927.3,1719.1,2748,169.4,54.4,-48.3
0.150000,860.4,359.3,1722.3,116.2,2673.2,386.2,938.1,1724.1,2760.3,169.6,53.4,-97.8
0.152000,914.7,366.3,1739.4,90.5,2753.4,385.2,948.2,1730.2,2773.6,0,52.3,-147.3
0.154000,949.6,345.9,1760.1,76.4,2802.1,343.5,957.5,1737.6,2787.7,0,51.3,-186.9
0.156000,956.2,300.9,1779.4,70.1,2810.0,328.5,965.9,1746.3,2802.6,0,50.6,-208.3
0.158000,956.4,264.7,1787.8,71.9,2801.0,362.0,973.4,1756.1,2818.1,0,49.9,-215
0.160000,971.0,259.9,1784.3,86.2,2803.2,447.8,980,1767.2,2834.1,0,49.1,-212.8
0.162000,1004.6,276.0,1774.4,114.0,2841.5,541.5,985.6,1779.3,2850.4,0,48.7,-206.4
0.164000,1044.5,287.1,1766.6,149.3,2900.0,543.0,990.3,1792.4,2866.8,0,48.2,-200.9
0.166000,1078.8,288.1,1768.8,188.7,2945.4,463.1,994,1806.3,2883.3,0,47.8,-200
0.168000,1097.8,283.1,1783.1,214.5,2976.9,387.4,997,1820.9,2899.5,0,47.3,-200
0.170000,1101.0,277.8,1797.0,218.0,3005.8,333.7,999.1,1835.8,2915.5,0,46.9,-200
0.172000,1089.2,282.0,1799.8,206.0,3025.4,297.3,1000.5,1850.9,2930.8,0,46.7,-200
0.174000,1066.0,300.7,1797.4,192.9,3029.9,268.7,1001.4,1865.8,2945.6,0,46.4,-200
0.176000,1033.9,331.1,1800.7,185.7,3021.3,248.3,1001.7,1880.5,2959.4,0,46.2,-200
0.178000,1001.3,367.2,1819.6,192.2,3006.8,254.8,1001.6,1894.4,2972.3,0,46.1,-200
0.180000,972.5,407.5,1866.8,213.2,2998.3,306.3,1001.2,1907.5,2984,0,45.9,-200
0.182000,952.1,431.8,1937.4,225.5,3018.3,403.6,1000.7,1919.4,2994.4,0,45.6,-200
0.184000,943.1,429.7,1991.8,216.6,3065.3,520.1,1000,1929.9,3003.4,0,45.4,-200
0.186000,949.7,418.5,2008.2,218.1,3093.0,690.5,999.3,1938.9,3010.9,0,45.4,-200
0.188000,964.0,408.5,1996.1,239.3,3040.4,910.8,998.7,1946,3016.9,0,45.4,-200
0.190000,976.9,393.2,1982.5,259.5,2923.7,1079.3,998.2,1951.2,3021.2,0,45.3,-200
0.192000,982.6,378.0,1983.6,265.1,2839.7,1146.5,997.9,1954.4,3023.8,0,45.2,-200
0.194000,975.3,381.1,1991.3,265.9,2825.9,1181.4,997.8,1955.4,3024.7,0,45,-200
