time,f1,b1,f2,b2,f3,b3,f1p,f2p,f3p,f0,intensity,harmonicity
0.025000,713.7,93.8,1700.8,168.6,2567.6,213.2,708.3,1676,2565,188.9,74,4.4
0.027000,723.3,95.3,1696.4,175.5,2564.0,219.3,710.9,1676.8,2565,189,74.1,5.6
0.029000,730.2,95.4,1693.1,182.0,2561.1,226.3,715.1,1678,2565.1,189,74.2,7.2
0.031000,734.8,94.3,1691.2,184.5,2561.0,231.0,720.7,1679.6,2565.1,189.1,74.3,8.8
0.033000,738.4,93.6,1689.8,181.6,2565.0,227.6,727.6,1681.3,2565.1,189.1,74.4,10.2
0.035000,742.8,94.4,1687.3,175.2,2572.5,216.5,735.5,1683.1,2565.1,189.2,74.5,11.1
0.037000,748.3,96.5,1682.7,168.2,2579.0,202.9,744.1,1684.7,2564.9,189.3,74.5,11.5
0.039000,754.4,99.2,1677.1,162.3,2580.1,190.8,753.1,1686,2564.7,189.4,74.6,11.4
0.041000,761.3,102.7,1671.7,157.5,2574.7,179.8,762.1,1686.7,2564.4,189.5,74.6,11.1
0.043000,767.1,106.0,1668.7,155.5,2565.1,172.0,770.9,1686.7,2564,189.6,74.6,10.8
0.045000,770.2,107.6,1668.5,158.9,2553.7,169.8,779.1,1685.8,2563.4,189.7,74.7,10.6
0.047000,770.1,107.2,1669.1,169.4,2543.8,175.7,786.5,1683.9,2562.7,189.8,74.7,10.4
0.049000,769.4,106.3,1667.3,181.9,2539.0,187.4,792.8,1681,2561.8,190,74.7,10.1
0.051000,770.4,106.9,1660.7,188.1,2541.5,200.1,797.8,1676.8,2560.9,190.1,74.7,9.8
0.053000,774.3,109.3,1652.8,183.1,2550.4,205.1,801.5,1671.6,2559.8,190.3,74.6,9.8
0.055000,780.9,112.3,1647.1,172.5,2560.6,200.6,803.6,1665.3,2558.7,190.5,74.6,10.3
0.057000,788.2,114.6,1644.3,166.3,2566.4,193.1,804.3,1658.1,2557.6,190.7,74.6,11.5
0.059000,793.1,116.2,1641.4,170.2,2567.3,189.6,803.5,1650.1,2556.5,190.9,74.6,13.2
0.061000,794.2,117.6,1635.4,185.7,2565.0,190.5,801.4,1641.6,2555.5,191.1,74.6,15.2
0.063000,792.5,118.8,1627.0,207.1,2561.4,194.0,798.1,1632.9,2554.7,191.3,74.5,16.9
0.065000,791.0,119.6,1620.6,224.5,2558.4,198.3,794,1624.1,2554.1,191.6,74.5,17.9
0.067000,792.4,120.6,1621.5,227.3,2558.0,204.3,789.2,1615.8,2553.8,191.8,74.4,18.2
0.069000,796.0,122.3,1627.1,218.3,2557.7,213.5,784.1,1608,2553.9,192,74.3,17.9
0.071000,800.0,124.6,1631.8,206.5,2552.5,224.5,779,1601.2,2554.3,192.3,74.2,17.3
0.073000,802.2,126.7,1632.6,199.6,2542.6,228.2,774.2,1595.6,2555.3,192.6,74.1,16.6
0.075000,802.4,127.8,1630.0,197.3,2537.4,217.2,770.1,1591.6,2556.7,192.8,74,16
0.077000,800.4,126.6,1624.9,199.3,2545.8,197.8,767,1589.2,2558.6,193.1,73.8,15.5
0.079000,797.9,124.6,1618.2,206.2,2561.0,185.3,765.2,1588.7,2561.1,193.3,73.7,14.9
0.081000,796.6,124.9,1610.8,217.4,2575.8,188.1,764.8,1590.2,2564.1,193.6,73.4,14.3
0.083000,797.0,130.1,1604.2,228.4,2587.2,206.9,766.2,1593.7,2567.6,193.8,73.1,13.7
0.085000,796.9,140.0,1597.8,235.1,2596.3,230.6,769.4,1599.2,2571.5,194.1,72.8,13.1
0.087000,793.1,150.0,1591.8,234.1,2599.2,229.5,774.5,1606.5,2575.8,194.3,72.4,12.6
0.089000,785.9,156.6,1587.6,228.7,2594.3,198.8,781.6,1615.5,2580.4,194.5,71.9,12.1
0.091000,778.8,163.4,1588.6,222.2,2586.9,161.4,790.5,1626,2585.2,194.7,71.4,11.6
0.093000,774.9,176.3,1597.6,217.4,2582.8,135.7,801.3,1637.6,2590.2,194.9,70.7,11
0.095000,771.6,203.6,1616.8,219.2,2583.4,120.5,813.6,1650,2595.1,195.1,70,10.2
0.097000,766.7,251.1,1644.4,229.4,2586.9,111.3,827.2,1662.8,2599.9,195.3,69.1,9.1
0.099000,762.5,323.2,1672.6,243.8,2590.7,103.0,842,1675.7,2604.5,195.5,68.1,7.6
0.101000,766.2,444.4,1695.3,260.3,2594.3,94.7,857.4,1688.2,2608.7,195.7,67,6.2
0.103000,794.5,614.4,1704.1,273.3,2597.5,88.3,873.4,1700,2612.4,195.8,65.9,4.9
0.105000,866.5,717.8,1700.1,272.0,2600.5,84.9,889.3,1710.6,2615.6,196,64.7,4.2
0.107000,928.6,573.8,1696.2,252.9,2603.3,89.1,905,1719.8,2618.1,196.1,63.7,7.4
0.109000,961.2,360.8,1701.4,231.1,2604.0,106.1,920.1,1727.2,2619.8,196.2,62.7,14.5
0.111000,980.1,230.5,1714.1,224.6,2604.1,134.0,934.3,1732.6,2620.7,196.4,61.8,20.1
0.113000,992.7,174.6,1733.0,227.5,2612.6,158.1,947.2,1735.8,2620.7,196.5,60.9,19.1
0.115000,1002.8,151.5,1754.2,223.1,2629.5,181.0,958.6,1736.8,2619.9,196.6,60.1,6.3
0.117000,1010.6,151.6,1770.2,218.2,2643.7,206.8,968.3,1735.5,2618.2,196.7,59.2,-24.9
0.119000,1013.6,167.5,1774.2,230.6,2647.6,237.3,976.2,1731.9,2615.6,196.8,58.2,-71.1
0.121000,1007.0,177.7,1761.2,258.9,2641.7,270.5,982.1,1726.3,2612.1,196.9,57.2,-122.3
0.123000,999.7,162.7,1739.5,268.1,2630.8,278.8,986.1,1718.8,2607.9,196.9,56.1,-168.6
0.125000,998.9,147.1,1726.8,246.8,2624.1,252.5,988.1,1709.6,2603.1,197,55.2,-200
0.127000,999.6,149.5,1720.5,210.3,2618.3,216.9,988.1,1699.1,2597.6,0,54.1,-213.2
0.129000,997.6,168.6,1711.4,175.1,2605.9,190.1,986.4,1687.6,2591.6,0,53.2,-214.9
0.131000,992.7,200.1,1698.1,152.5,2588.0,174.9,983,1675.4,2585.2,0,52.4,-209.9
0.133000,991.0,232.3,1680.9,152.3,2571.9,178.0,978.2,1662.9,2578.6,0,51.7,-203.3
0.135000,989.8,263.8,1654.5,174.3,2556.4,206.1,972.1,1650.6,2571.8,0,51.2,-200
0.137000,973.6,296.7,1619.8,201.4,2536.4,252.6,965,1638.6,2565,0,50.9,-200
0.139000,939.5,319.9,1587.8,210.9,2513.8,291.8,957.1,1627.4,2558.3,0,50.9,-200
0.141000,894.6,320.7,1564.4,202.8,2497.6,311.8,948.7,1617.3,2551.7,0,50.4,-200
0.143000,854.3,305.6,1553.1,191.9,2501.6,317.0,939.9,1608.4,2545.4,0,50.2,-200
0.145000,824.0,292.9,1552.2,189.1,2529.3,315.9,931,1600.9,2539.4,0,49.6,-200
0.147000,812.7,302.8,1559.8,196.4,2564.6,315.2,922.3,1594.9,2533.9,0,48.7,-200
0.149000,825.6,346.2,1570.1,202.2,2582.9,335.7,913.8,1590.4,2528.8,0,47.8,-200
0.151000,866.3,429.0,1581.8,203.4,2572.0,410.1,905.7,1587.5,2524.1,0,46.9,-200
0.153000,922.0,535.9,1594.6,211.5,2528.8,532.0,898.1,1586,2519.9,0,46.1,-200
0.155000,979.2,684.1,1607.1,229.4,2470.2,662.1,891.2,1585.7,2516.3,0,45.4,-200
0.157000,1022.7,915.3,1615.9,248.2,2437.4,795.9,884.9,1586.6,2513.1,0,45.1,-200
0.159000,1030.2,1154.3,1625.7,251.8,2453.3,957.9,879.3,1588.3,2510.4,0,44.8,-200
0.161000,982.1,1018.9,1643.8,229.2,2552.2,1037.8,874.5,1590.6,2508.1,0,44.6,-200
0.163000,930.6,734.0,1647.6,195.2,2632.8,958.0,870.3,1593.3,2506.2,0,43.9,-200
0.165000,902.4,577.1,1637.3,176.8,2629.2,833.4,866.9,1596.2,2504.7,0,43.3,-200
0.167000,893.3,544.3,1625.1,180.1,2577.6,726.1,864.1,1598.8,2503.6,0,42.3,-200
0.169000,891.4,598.9,1611.6,199.4,2526.6,674.3,862,1601.2,2502.7,0,41.4,-200
0.171000,870.1,735.0,1587.6,228.4,2473.4,670.9,860.5,1603,2502.1,0,41,-200
0.173000,791.1,953.2,1554.6,255.2,2420.0,708.0,859.6,1604.1,2501.7,0,40.9,-200
0.175000,596.3,1363.7,1522.9,292.5,2366.6,834.2,859.4,1604.5,2501.6,0,41.1,-200
