time,f1,b1,f2,b2,f3,b3,f1p,f2p,f3p,f0,intensity,harmonicity
0.025000,691.7,110.8,1644.9,136.3,2555.5,292.5,704.1,1646.4,2500.9,79.6,65.8,0.1
0.027000,694.6,105.0,1643.5,129.9,2533.6,275.2,705.9,1644.8,2497.3,80,65.8,1
0.029000,699.0,100.4,1639.7,129.5,2506.2,278.7,708.9,1642.3,2491.6,80.4,65.8,2.5
0.031000,706.2,100.4,1634.5,139.2,2469.2,306.8,713,1639,2483.8,80.9,65.8,4.3
0.033000,717.2,106.0,1630.6,156.3,2435.9,332.3,718.1,1635.2,2474.3,81.6,65.8,6.1
0.035000,729.9,112.7,1630.6,168.7,2424.1,336.0,724.1,1631.2,2463.2,82.3,65.8,7.5
0.037000,742.9,116.7,1632.9,170.2,2423.1,324.6,730.9,1627.2,2451.1,83.1,65.7,8.5
0.039000,755.7,118.7,1633.4,163.1,2423.0,308.4,738.4,1623.5,2438.2,84.1,65.6,9.5
0.041000,765.4,121.4,1628.0,157.3,2419.7,307.4,746.4,1620.4,2424.9,85.2,65.6,10.3
0.043000,769.7,126.2,1618.9,157.5,2412.9,316.4,754.8,1618.1,2411.6,86.4,65.6,10.7
0.045000,769.6,131.4,1614.0,163.3,2405.2,306.1,763.3,1616.7,2398.6,87.8,65.6,10.7
0.047000,770.2,133.4,1612.9,172.4,2395.4,289.8,771.9,1616.4,2386.2,89.3,65.7,10
0.049000,773.8,129.5,1613.6,180.5,2385.0,280.0,780.4,1617,2374.7,90.9,65.8,8.7
0.051000,779.6,123.6,1616.6,183.4,2375.9,271.9,788.5,1618.5,2364.3,92.7,65.8,7.2
0.053000,789.2,121.8,1622.8,180.0,2364.0,259.7,796.2,1620.8,2355.2,94.7,65.8,5.7
0.055000,800.7,125.5,1629.8,172.8,2348.7,249.9,803.2,1623.6,2347.4,96.7,65.8,4.7
0.057000,809.1,132.0,1634.9,169.1,2334.8,248.9,809.5,1626.7,2341,98.9,65.8,4.1
0.059000,812.8,138.8,1635.7,167.4,2323.3,244.3,815,1629.7,2336,101.2,65.8,3.5
0.061000,814.2,140.5,1632.0,161.9,2313.4,228.8,819.5,1632.2,2332.4,103.6,65.9,3.2
0.063000,815.9,134.1,1627.7,151.3,2308.5,207.9,823.2,1634.2,2330,106,65.9,3.2
0.065000,819.3,124.6,1625.7,141.2,2312.9,189.8,825.9,1635.2,2328.9,108.6,66,3.7
0.067000,824.5,117.0,1624.8,135.7,2325.1,177.6,827.7,1635.1,2328.8,111.1,66,5
0.069000,829.0,112.5,1623.7,135.4,2341.7,173.7,828.6,1633.7,2329.7,113.7,66,6.9
0.071000,830.3,111.0,1623.2,138.5,2357.7,179.3,828.7,1631.1,2331.6,116.3,65.9,9.1
0.073000,830.2,112.3,1623.4,143.3,2371.2,193.0,828.3,1627.4,2334.4,118.9,65.9,11.1
0.075000,830.1,115.3,1623.9,149.3,2378.0,213.0,827.3,1622.6,2338,121.4,65.9,12.3
0.077000,828.6,117.8,1623.5,159.2,2378.5,243.7,826,1617.2,2342.4,123.9,65.9,12.8
0.079000,825.5,120.1,1620.1,176.7,2372.9,289.5,824.6,1611.3,2347.7,126.3,65.9,12.7
0.081000,823.6,122.9,1613.4,193.2,2360.6,321.2,823.1,1605.5,2353.9,128.7,65.8,12.3
0.083000,824.7,123.8,1607.5,196.1,2350.4,306.8,821.9,1600.2,2361.1,130.9,65.8,11.8
0.085000,826.9,122.5,1605.6,191.7,2351.1,280.2,821.1,1595.7,2369.3,133,65.7,11.5
0.087000,829.5,122.3,1606.1,190.1,2356.4,274.2,820.8,1592.6,2378.7,135.1,65.5,11.3
0.089000,831.7,123.9,1606.2,189.5,2359.1,296.8,821.2,1591.3,2389.2,136.9,65.4,11.2
0.091000,830.4,125.1,1602.2,188.8,2354.5,344.1,822.4,1591.9,2401.1,138.7,65.1,11
0.093000,824.5,127.3,1592.1,194.5,2342.5,417.6,824.4,1594.8,2414.2,140.3,64.9,10.7
0.095000,818.1,129.8,1580.6,207.1,2334.8,502.3,827.3,1600.1,2428.6,141.9,64.7,10.2
0.097000,816.9,129.4,1578.4,213.0,2363.6,562.8,831.2,1607.6,2444.4,143.2,64.4,9.2
0.099000,824.0,126.7,1591.3,204.8,2452.9,540.3,835.9,1617.4,2461.3,144.5,64,7.9
0.101000,835.7,123.8,1610.8,199.5,2547.8,450.1,841.4,1629.1,2479.3,145.7,63.5,6.5
0.103000,849.1,119.4,1632.4,211.7,2616.4,363.2,847.7,1642.3,2498.2,146.7,62.9,5.4
0.105000,860.1,114.6,1655.4,240.9,2648.4,326.7,854.6,1656.6,2517.9,147.6,62.3,4.7
0.107000,868.8,116.6,1685.6,271.3,2650.1,350.6,862,1671.5,2538.1,148.5,61.5,7.9
0.109000,874.6,134.7,1715.5,286.4,2620.6,432.7,869.7,1686.4,2558.5,149.3,60.8,15
0.111000,874.6,160.0,1725.1,282.4,2566.3,482.6,877.6,1700.8,2578.9,149.9,60,20.6
0.113000,873.5,171.6,1721.5,252.2,2529.7,427.1,885.5,1714.1,2599.1,150.5,59.1,19.5
0.115000,880.7,157.9,1722.8,208.9,2542.5,337.8,893.3,1725.9,2618.7,151.1,58.3,6.7
0.117000,896.3,127.2,1731.6,163.1,2586.6,258.8,900.8,1735.8,2637.5,151.6,57.4,-24.6
0.119000,913.5,99.0,1743.7,117.4,2641.8,185.1,908,1743.5,2655.4,152,56.6,-70.9
0.121000,924.3,86.9,1754.4,88.6,2675.9,130.7,914.6,1748.8,2672.1,152.4,55.6,-122.2
0.123000,926.4,83.1,1762.0,77.8,2689.8,101.7,920.8,1751.8,2687.5,152.7,54.8,-168.6
0.125000,924.8,75.9,1763.8,81.3,2693.4,94.9,926.3,1752.5,2701.5,153,54,-200
0.127000,929.6,63.2,1758.2,96.6,2693.7,103.9,931.2,1751.2,2714,153.3,53.3,-213.2
0.129000,940.3,49.9,1742.9,123.5,2694.6,131.3,935.5,1748.2,2725,153.5,52.6,-214.9
0.131000,949.3,40.1,1722.6,147.7,2701.6,173.6,939.1,1743.8,2734.5,0,52.2,-209.9
0.133000,954.7,33.9,1705.4,156.2,2720.8,222.1,942.1,1738.7,2742.6,0,51.9,-203.3
0.135000,956.6,32.0,1696.7,153.9,2743.9,254.7,944.6,1733.3,2749.2,0,51.8,-200
0.137000,956.2,35.7,1693.6,156.4,2761.0,274.3,946.5,1728,2754.5,0,51.6,-200
0.139000,952.9,48.7,1698.4,171.1,2774.7,293.0,948,1723.4,2758.6,0,51.3,-200
0.141000,945.5,70.8,1717.7,193.7,2786.1,306.5,949,1719.8,2761.4,0,51.6,-200
0.143000,933.7,86.8,1753.9,212.9,2792.7,298.2,949.6,1717.5,2763.1,0,51.3,-200
0.145000,922.7,83.7,1791.8,225.7,2795.6,268.9,949.8,1716.7,2763.7,0,51.3,-200
