time,f1,b1,f2,b2,f3,b3,f1p,f2p,f3p,f0,intensity,harmonicity
0.025000,794.3,91.3,1656.5,152.7,2606.1,516.2,812.7,1648.4,2638.2,165.8,65.7,9
0.027000,798.1,91.2,1646.3,146.5,2612.6,618.1,811.8,1645,2627.2,165.6,65.9,9.2
0.029000,800.9,93.3,1636.7,163.0,2628.8,714.0,810.4,1639.7,2609.4,165.4,66,8.8
0.031000,803.7,94.4,1622.4,186.2,2618.8,741.6,808.7,1632.6,2585.5,165.1,66.2,8.3
0.033000,806.5,94.8,1606.9,196.9,2585.0,715.1,807,1624.2,2556.5,164.9,66.2,7.9
0.035000,808.7,97.3,1597.1,189.4,2545.0,685.8,805.5,1615,2523.4,164.7,66.3,8
0.037000,810.5,102.8,1593.3,174.8,2498.0,679.2,804.6,1605.4,2487.6,164.4,66.2,8.9
0.039000,812.7,108.9,1592.9,163.9,2446.1,698.2,804.4,1595.9,2450.3,164.2,66.2,10.2
0.041000,815.9,114.1,1593.2,159.7,2392.3,737.7,805.3,1587,2413,164,66.2,11.7
0.043000,819.3,118.6,1592.5,161.1,2340.9,782.6,807.5,1579,2376.9,163.7,66.1,13.1
0.045000,822.9,122.8,1590.8,166.7,2301.9,827.4,811,1572.3,2343.1,163.5,66.1,14.1
0.047000,827.2,128.3,1588.7,176.1,2278.2,881.6,816,1567.1,2312.6,163.3,66.1,14.7
0.049000,832.9,134.4,1586.3,186.0,2265.1,922.7,822.2,1563.4,2286.3,163.1,66.1,15
0.051000,840.1,135.9,1582.7,188.5,2264.2,883.0,829.6,1561.1,2264.6,162.9,66.2,15.1
0.053000,847.9,130.2,1576.2,182.5,2269.7,747.1,838,1560.2,2247.8,162.7,66.2,15.1
0.055000,854.5,120.4,1566.6,174.0,2269.1,580.0,846.9,1560.3,2236.1,162.5,66.3,15.1
0.057000,858.8,110.7,1557.1,168.3,2262.6,438.2,856,1561.2,2229.1,162.4,66.3,14.9
0.059000,861.8,104.2,1550.3,168.7,2256.5,333.9,864.9,1562.3,2226.4,162.2,66.3,14.6
0.061000,864.3,102.1,1545.7,176.7,2252.9,263.9,873.2,1563.4,2227.6,162.1,66.3,14.2
0.063000,866.3,102.9,1543.1,188.5,2250.6,223.7,880.4,1563.9,2231.7,162,66.3,14.1
0.065000,868.3,103.9,1542.3,198.0,2248.2,203.5,886.3,1563.6,2238.1,161.9,66.2,14.4
0.067000,870.2,104.6,1542.5,201.5,2245.1,193.9,890.5,1562.2,2245.9,161.9,66.1,15.4
0.069000,872.4,104.3,1542.2,195.5,2242.4,190.9,892.9,1559.6,2254.2,161.8,66.1,17
0.071000,875.1,102.8,1541.0,180.6,2242.3,196.7,893.5,1555.7,2262.3,161.8,66,18.8
0.073000,878.3,101.8,1539.1,163.3,2245.1,215.4,892.1,1550.5,2269.6,161.8,65.9,20.3
0.075000,881.3,100.4,1537.6,147.8,2248.1,237.4,889.2,1544.5,2275.5,161.8,65.7,20.9
0.077000,882.9,97.7,1537.6,137.1,2250.6,232.2,884.8,1537.8,2279.6,161.8,65.6,20.4
0.079000,883.2,95.7,1539.1,133.8,2255.3,193.5,879.4,1530.9,2281.7,161.8,65.3,19.1
0.081000,882.5,98.5,1541.4,142.4,2262.2,159.1,873.5,1524.5,2281.9,161.9,65.1,17.5
0.083000,880.7,106.8,1543.9,166.8,2270.0,149.6,867.5,1518.9,2280.1,161.9,64.8,16
0.085000,877.8,119.0,1545.5,210.9,2277.8,163.5,862,1514.9,2276.7,162,64.5,15
0.087000,874.8,132.5,1543.8,275.0,2283.5,193.3,857.5,1512.9,2272.1,162,64.2,14.6
0.089000,874.1,143.2,1538.2,343.3,2285.8,228.1,854.4,1513.3,2266.5,162.1,63.9,14.7
0.091000,877.4,149.0,1531.5,387.4,2285.5,259.2,853.1,1516.5,2260.6,162.1,63.5,14.9
0.093000,881.7,152.8,1526.0,404.3,2283.0,284.3,854,1522.6,2254.7,162.2,63.2,15.1
0.095000,882.9,156.2,1524.3,409.4,2277.3,283.5,857.1,1531.6,2249.2,162.3,62.7,14.8
0.097000,880.8,154.0,1531.7,399.9,2268.1,232.8,862.6,1543.5,2244.5,162.3,62.3,14.3
0.099000,878.1,143.1,1551.8,364.9,2259.5,169.7,870.2,1557.8,2240.9,162.4,61.8,13.4
0.101000,877.0,129.1,1574.1,304.2,2253.7,130.5,879.8,1574,2238.5,162.5,61.2,12.5
0.103000,878.4,122.6,1585.0,240.3,2250.8,119.1,891,1591.5,2237.4,162.5,60.6,11.5
0.105000,880.1,128.6,1584.5,193.7,2251.0,134.1,903.4,1609.5,2237.5,162.6,60,10.4
0.107000,878.0,144.0,1579.5,167.0,2254.8,177.3,916.4,1627.3,2238.6,162.6,59.4,9.4
0.109000,870.3,163.7,1577.7,159.0,2260.7,251.1,929.4,1643.8,2240.5,162.7,58.7,8.3
0.111000,862.8,192.9,1587.0,181.5,2255.3,361.4,941.8,1658.4,2242.9,162.7,57.9,7.2
0.113000,873.9,244.5,1619.9,275.4,2197.3,496.1,953.2,1670.4,2245.4,162.7,57.2,6.1
0.115000,932.0,274.7,1695.0,475.0,2083.0,565.9,963,1678.9,2247.8,162.8,56.4,5
0.117000,998.5,218.6,1802.9,545.9,2021.1,618.4,970.7,1683.7,2249.7,162.8,55.6,7.2
0.119000,1029.1,167.9,1791.1,401.5,2110.1,705.1,976.2,1684.5,2250.8,162.8,54.8,12.5
0.121000,1037.9,155.6,1745.6,310.9,2211.5,756.4,979.3,1681.2,2250.9,162.8,53.9,16.3
0.123000,1033.6,163.4,1698.7,242.2,2320.4,866.7,979.9,1673.9,2250,0,52.9,13.9
0.125000,1024.4,175.3,1658.5,182.2,2448.9,1005.8,978.2,1663.1,2247.9,0,52.1,0.4
0.127000,1017.6,210.4,1633.6,149.8,2575.6,1154.0,974.4,1649.4,2244.8,0,51,-33.6
0.129000,1009.5,289.6,1619.6,166.1,2609.7,1426.7,969,1633.5,2240.9,0,50.4,-85.1
0.131000,992.2,365.9,1609.5,238.5,2312.8,1669.2,962.3,1616.2,2236.3,0,50,-139.7
0.133000,960.7,395.7,1586.1,381.9,2031.8,1173.9,955,1598.6,2231.4,0,49.8,-182.8
0.135000,931.0,380.1,1526.9,523.5,2007.1,780.7,947.6,1581.6,2226.4,0,50.1,-200
0.137000,915.6,353.4,1487.0,635.1,2033.0,633.4,940.6,1566.1,2221.8,0,49.6,-178.3
0.139000,910.9,341.2,1477.5,863.4,2040.2,564.5,934.6,1553.1,2217.8,0,49.6,-127.3
0.141000,906.5,362.4,1480.9,1419.4,2019.0,466.9,929.9,1543.2,2214.8,0,49.6,-66.6
0.143000,893.4,481.7,1292.6,3166.4,2001.2,354.3,927,1537.1,2212.8,0,49.2,-15.8
0.145000,902.5,752.6,1984.9,305.3,2821.0,1258.6,926,1535,2212.2,0,49.7,5.5
