time,f1,b1,f2,b2,f3,b3,f1p,f2p,f3p,f0,intensity,harmonicity
0.025000,734.4,144.8,1805.4,124.1,2400.4,145.7,765.5,1789.8,2391.9,152.7,69.6,7.4
0.027000,743.9,146.7,1807.0,125.4,2393.2,146.7,766.9,1789.8,2390.4,152.5,69.4,6.9
0.029000,755.1,149.5,1807.1,126.9,2389.0,146.7,769.3,1789.8,2387.8,152.3,69.2,5.5
0.031000,766.6,152.2,1801.9,127.1,2385.1,145.3,772.6,1789.7,2384.5,152.2,69.1,3.9
0.033000,778.0,156.9,1791.2,125.2,2379.8,142.4,776.6,1789.3,2380.4,152,69,2.7
0.035000,791.0,162.4,1779.0,120.9,2372.8,138.2,781.4,1788.7,2375.7,151.9,68.9,2.4
0.037000,803.0,162.8,1771.1,116.0,2367.3,135.7,786.7,1787.6,2370.7,151.8,68.7,3.6
0.039000,813.1,159.1,1767.6,112.9,2364.5,137.8,792.6,1785.9,2365.5,151.7,68.6,5.8
0.041000,821.8,154.9,1765.3,112.2,2361.7,146.6,798.8,1783.7,2360.2,151.6,68.4,8.3
0.043000,826.1,151.1,1763.4,111.9,2356.4,159.4,805.1,1780.7,2355.1,151.5,68.3,10.6
0.045000,827.0,147.2,1763.2,109.0,2349.2,172.8,811.5,1776.9,2350.1,151.5,68.1,12
0.047000,827.9,145.4,1764.5,104.7,2343.0,186.8,817.7,1772.4,2345.5,151.5,68,12.6
0.049000,829.8,144.1,1764.7,101.8,2338.3,199.9,823.5,1767.1,2341.2,151.5,67.9,12.7
0.051000,832.2,139.9,1762.0,100.8,2334.6,204.9,828.9,1761.1,2337.2,151.5,67.7,12.3
0.053000,835.4,134.6,1756.7,102.6,2331.1,197.8,833.6,1754.6,2333.6,151.6,67.5,11.8
0.055000,838.3,130.5,1748.4,108.0,2325.1,185.8,837.4,1747.6,2330.2,151.7,67.2,11
0.057000,837.2,127.8,1740.0,115.8,2316.9,181.0,840.4,1740.4,2327,151.9,66.9,9.8
0.059000,832.5,126.5,1735.0,125.6,2309.8,189.2,842.3,1733.1,2324,152,66.6,8
0.061000,827.3,127.3,1733.5,139.1,2304.5,206.9,843.3,1726.1,2321,152.2,66.2,6.1
0.063000,824.4,128.3,1733.5,150.8,2304.7,219.5,843.2,1719.3,2318.1,152.5,65.9,4.7
0.065000,821.4,126.9,1731.7,159.3,2316.4,222.8,842,1713.2,2315.2,152.7,65.5,4.3
0.067000,818.0,124.7,1726.5,166.1,2338.3,210.7,840,1707.9,2312.3,153,65.2,5.4
0.069000,817.4,123.4,1719.0,168.9,2354.5,181.2,837.2,1703.5,2309.6,153.3,64.9,7.6
0.071000,820.9,122.5,1711.2,166.2,2354.8,154.6,833.9,1700.2,2307.2,153.6,64.5,10.2
0.073000,826.8,123.1,1706.1,162.7,2342.0,148.1,830.1,1698,2305.2,153.9,64.2,12.5
0.075000,832.0,126.8,1701.0,163.9,2319.8,162.6,826.1,1697,2303.8,154.3,64,13.6
0.077000,833.0,131.8,1693.0,169.5,2293.3,198.9,822.3,1697.1,2303.3,154.6,63.8,13.4
0.079000,830.2,135.0,1685.0,174.3,2273.4,251.5,818.8,1698.3,2303.9,155,63.7,12.2
0.081000,828.6,135.0,1680.3,171.5,2267.6,305.1,815.9,1700.4,2306,155.3,63.6,10.6
0.083000,830.6,132.5,1680.4,163.4,2274.8,336.6,813.9,1703.3,2309.7,155.7,63.5,9.1
0.085000,833.9,129.6,1685.2,157.8,2287.0,359.0,812.9,1706.7,2315.1,156,63.3,8.3
0.087000,837.2,125.7,1693.4,156.2,2297.3,375.9,813.1,1710.4,2322.6,156.3,63,11.6
0.089000,838.7,118.2,1701.3,155.7,2302.8,371.7,814.6,1714.3,2332.1,156.6,62.6,18.8
0.091000,835.9,108.0,1707.8,152.6,2315.8,330.5,817.6,1717.9,2343.5,156.9,62,24.5
0.093000,828.7,100.8,1716.3,143.2,2346.8,270.9,821.9,1721.1,2356.9,157.2,61.3,23.4
0.095000,820.1,97.6,1729.1,122.1,2390.5,210.8,827.5,1723.6,2371.9,157.5,60.6,10.4
0.097000,817.1,101.1,1739.0,93.0,2433.2,162.4,834.3,1725.2,2388.3,157.7,59.7,-21.5
0.099000,823.0,117.5,1741.2,70.3,2464.8,132.6,842.1,1725.8,2405.7,158,58.8,-68.6
0.101000,837.1,159.1,1739.5,57.6,2484.8,122.3,850.7,1725.2,2423.5,158.2,57.9,-120.8
0.103000,851.7,229.2,1737.3,54.5,2492.8,133.2,859.8,1723.3,2441.3,158.4,57,-168
0.105000,855.2,302.8,1734.7,57.3,2489.9,159.3,869.1,1720.1,2458.6,158.6,56.3,-200
0.107000,850.1,306.6,1730.8,65.0,2475.7,180.5,878.4,1715.7,2474.6,158.7,55.6,-216.7
0.109000,861.5,246.4,1724.8,80.2,2460.5,181.5,887.2,1710,2488.9,0,55.2,-224.9
0.111000,884.7,167.7,1712.8,107.0,2450.9,173.7,895.3,1703.1,2501,0,54.9,-224.7
0.113000,900.7,110.6,1693.9,132.8,2448.2,172.0,902.6,1695.2,2510.5,0,54.8,-216.3
0.115000,910.2,75.4,1675.1,143.2,2454.1,189.0,908.7,1686.5,2517,0,54.7,-200
0.117000,916.7,55.9,1665.3,141.0,2471.6,236.3,913.5,1677.2,2520.4,0,54.6,-165.9
0.119000,921.9,45.9,1661.7,137.3,2499.1,295.6,916.9,1667.4,2520.6,0,54.2,-114
0.121000,926.4,42.4,1658.9,137.8,2528.5,316.7,918.9,1657.3,2517.7,0,53.7,-58.8
0.123000,930.6,47.1,1651.6,151.1,2544.3,287.3,919.6,1647.2,2511.9,0,52.9,-15
0.125000,936.6,64.4,1635.2,187.3,2550.6,254.6,919,1637.3,2503.6,0,51.9,2.8
0.127000,944.2,95.7,1610.5,245.4,2549.8,249.9,917.3,1627.7,2493.2,0,50.8,-15
0.129000,947.5,130.6,1589.1,305.2,2537.6,278.8,914.8,1618.7,2481.4,0,49.6,-58.8
0.131000,942.9,159.2,1578.6,350.7,2498.8,333.1,911.6,1610.4,2468.7,0,48.5,-114
0.133000,934.1,176.2,1580.2,374.5,2443.7,372.2,908.2,1602.9,2455.9,0,47.6,-165.9
0.135000,920.5,188.5,1588.0,372.6,2403.3,387.5,904.6,1596.4,2443.7,0,46.9,-200
0.137000,896.7,194.8,1592.7,335.9,2389.2,398.2,901.3,1590.9,2432.6,0,46.5,-213
0.139000,872.7,185.8,1593.7,297.7,2388.7,430.6,898.4,1586.6,2423.3,0,46.5,-214.6
0.141000,864.5,163.5,1595.7,292.3,2396.4,513.6,896.2,1583.5,2416.3,0,46.9,-209.7
0.143000,868.4,140.7,1604.3,324.7,2417.5,634.8,894.8,1581.6,2412,0,47.1,-203.2
0.145000,869.4,118.6,1620.0,387.7,2452.9,740.7,894.4,1580.9,2410.5,0,47.2,-200
