time,f1,b1,f2,b2,f3,b3,f1p,f2p,f3p,f0,intensity,harmonicity
0.025000,861.7,99.1,1891.3,321.7,3407.9,552.1,899.9,1827.3,3106.7,149.3,72.1,6.7
0.027000,872.9,99.6,1880.9,300.3,3383.0,763.6,901,1826.7,3107.2,148.9,71.9,6.6
0.029000,879.2,96.4,1872.7,271.1,3235.6,915.8,902.8,1825.6,3107.9,148.4,71.8,5.9
0.031000,884.5,91.8,1865.4,243.0,3102.0,798.1,905.3,1824.2,3109,147.9,71.6,5
0.033000,891.0,87.5,1855.2,224.3,3036.0,648.1,908.4,1822.4,3110.4,147.4,71.4,4.3
0.035000,898.6,83.8,1839.3,213.3,2998.9,517.3,912.2,1820.2,3112,146.9,71.3,4.1
0.037000,906.9,83.3,1818.9,209.5,2979.0,422.1,916.6,1817.5,3114,146.3,71.1,4.9
0.039000,916.2,85.5,1797.0,209.3,2966.4,369.7,921.6,1814.6,3116.2,145.8,71,6.2
0.041000,926.0,87.9,1777.0,208.5,2960.2,357.8,927,1811.3,3118.7,145.2,70.9,7.8
0.043000,935.3,90.9,1764.1,208.0,2970.2,382.5,933,1807.6,3121.4,144.7,70.8,9.1
0.045000,947.8,96.7,1759.7,207.1,3011.1,422.4,939.3,1803.6,3124.4,144.1,70.7,9.8
0.047000,963.4,103.6,1767.2,200.9,3073.5,418.3,945.9,1799.4,3127.7,143.5,70.7,9.6
0.049000,976.9,107.6,1778.1,188.6,3115.1,371.6,952.9,1794.8,3131.1,143,70.6,8.7
0.051000,987.7,109.3,1783.1,173.2,3138.6,323.5,960,1790,3134.8,142.5,70.6,7.7
0.053000,995.8,108.8,1779.4,159.9,3153.1,285.6,967.3,1784.9,3138.7,141.9,70.6,6.9
0.055000,1003.5,104.9,1772.2,149.2,3163.0,259.2,974.6,1779.6,3142.8,141.4,70.6,6.8
0.057000,1012.5,99.8,1767.6,143.7,3170.6,253.1,982,1774.2,3147.1,140.9,70.6,8
0.059000,1022.3,97.1,1764.2,145.4,3180.6,265.8,989.2,1768.5,3151.5,140.4,70.6,9.9
0.061000,1030.9,95.7,1758.0,151.1,3195.7,283.8,996.3,1762.8,3156.1,140,70.6,12.1
0.063000,1036.2,91.6,1751.1,151.0,3209.1,289.9,1003.2,1756.9,3160.8,139.6,70.6,13.9
0.065000,1040.3,85.5,1745.2,143.7,3218.7,285.0,1009.9,1750.9,3165.6,139.2,70.6,14.6
0.067000,1042.8,82.6,1737.7,138.9,3224.7,274.2,1016.2,1744.8,3170.5,138.8,70.6,13.9
0.069000,1041.7,83.2,1727.0,141.6,3226.1,262.7,1022,1738.7,3175.6,138.4,70.6,12.1
0.071000,1038.1,84.1,1715.6,150.2,3222.3,257.2,1027.5,1732.6,3180.7,138.1,70.6,9.9
0.073000,1035.7,84.8,1707.5,163.6,3214.2,265.1,1032.4,1726.5,3185.8,137.8,70.6,7.9
0.075000,1034.9,86.9,1701.6,181.1,3202.8,288.2,1036.8,1720.4,3191,137.5,70.6,6.7
0.077000,1033.6,89.6,1698.6,196.8,3193.4,319.7,1040.6,1714.3,3196.3,137.2,70.6,6.7
0.079000,1030.5,93.5,1700.3,214.8,3192.6,362.4,1043.7,1708.4,3201.5,137,70.5,7.2
0.081000,1025.6,101.8,1705.1,247.0,3202.3,443.0,1046.2,1702.5,3206.8,136.8,70.5,8.1
0.083000,1019.3,110.6,1707.1,281.0,3213.3,556.8,1048,1696.7,3212,136.6,70.4,8.8
0.085000,1012.3,112.7,1703.7,289.8,3201.6,633.0,1049.2,1691.1,3217.2,136.4,70.4,9.2
0.087000,1006.1,107.3,1697.1,271.7,3179.5,571.1,1049.6,1685.6,3222.4,136.3,70.4,8.9
0.089000,1001.4,100.8,1685.7,254.7,3178.4,452.5,1049.4,1680.3,3227.6,136.2,70.3,8.2
0.091000,999.0,96.0,1665.7,248.8,3190.8,354.6,1048.4,1675.2,3232.7,136.1,70.2,7.5
0.093000,999.8,94.1,1645.4,246.4,3207.9,296.1,1046.8,1670.3,3237.7,136,70,6.9
0.095000,1003.7,96.0,1632.3,240.2,3230.0,254.7,1044.6,1665.6,3242.7,135.9,69.8,6.8
0.097000,1010.1,101.5,1629.1,229.7,3250.5,220.0,1041.7,1661.1,3247.6,135.9,69.5,7.4
0.099000,1016.2,104.8,1631.9,216.0,3259.7,189.8,1038.3,1656.8,3252.4,135.8,69.2,8.3
0.101000,1020.0,102.3,1637.1,202.2,3259.1,162.4,1034.3,1652.8,3257.1,135.8,68.8,9.6
0.103000,1020.3,97.3,1642.0,198.7,3256.5,141.7,1029.8,1649,3261.7,135.8,68.4,10.8
0.105000,1017.3,93.9,1644.5,214.9,3257.6,129.4,1024.9,1645.5,3266.2,135.8,68.1,11.7
0.107000,1014.4,94.2,1646.4,246.7,3263.7,126.3,1019.6,1642.2,3270.6,135.9,67.7,12.5
0.109000,1014.1,97.2,1654.1,264.4,3270.2,128.7,1014,1639.1,3274.8,135.9,67.4,13.3
0.111000,1014.2,102.8,1666.8,253.1,3271.8,140.3,1008.1,1636.4,3279,136,67.1,13.9
0.113000,1012.0,109.9,1674.8,231.9,3268.6,168.4,1002,1633.9,3283,136,66.8,14.4
0.115000,1007.4,116.1,1678.3,212.5,3268.5,209.4,995.9,1631.6,3287,136.1,66.5,14.5
0.117000,1001.2,120.0,1677.1,195.7,3277.2,233.1,989.6,1629.6,3290.8,136.2,66.3,14.2
0.119000,993.3,121.3,1668.6,183.5,3286.0,223.8,983.5,1627.8,3294.4,136.3,66.2,13.6
0.121000,985.9,118.0,1652.9,176.8,3289.5,197.9,977.4,1626.3,3298,136.5,66,12.8
0.123000,983.7,111.2,1637.8,176.9,3292.5,178.3,971.5,1625,3301.4,136.6,65.9,12
0.125000,987.2,106.7,1629.1,191.9,3306.9,176.0,965.9,1623.9,3304.7,136.8,65.8,11.4
0.127000,994.1,108.3,1630.4,222.1,3332.4,188.5,960.6,1623,3307.9,137,65.7,10.9
0.129000,1000.0,113.4,1634.4,241.6,3350.9,201.4,955.7,1622.4,3311,137.2,65.6,10.4
0.131000,1003.4,122.4,1633.2,235.8,3359.2,212.9,951.3,1621.9,3314,137.4,65.5,10
0.133000,1003.4,133.5,1626.8,209.7,3364.4,224.4,947.4,1621.6,3316.8,137.6,65.4,9.7
0.135000,1001.4,139.5,1620.2,175.8,3371.0,235.9,944.1,1621.5,3319.6,137.8,65.3,9.4
0.137000,1000.9,137.0,1618.2,152.0,3376.8,243.3,941.4,1621.6,3322.2,138.1,65.1,9.3
0.139000,1001.6,136.4,1618.9,145.9,3381.4,244.1,939.4,1621.8,3324.7,138.4,64.8,9.2
0.141000,1000.2,143.3,1618.5,154.5,3380.2,237.2,938.2,1622.1,3327.1,138.6,64.6,9.2
0.143000,994.9,152.8,1615.3,169.2,3365.9,220.7,937.7,1622.6,3329.4,138.9,64.3,9.2
0.145000,987.6,160.1,1611.5,186.1,3338.4,193.4,938,1623.2,3331.6,139.2,64.1,9.3
0.147000,979.6,166.1,1606.6,212.4,3307.6,161.9,939,1623.9,3333.7,139.5,64,9.5
0.149000,971.9,173.6,1597.0,251.2,3286.7,137.0,941,1624.7,3335.8,139.8,63.8,9.8
0.151000,966.3,182.5,1589.0,279.2,3279.3,124.1,943.7,1625.6,3337.7,140.1,63.6,10.1
0.153000,962.3,185.7,1599.0,248.3,3281.7,125.2,947.2,1626.5,3339.5,140.4,63.5,10.3
0.155000,956.4,190.2,1617.2,180.4,3290.1,143.8,951.6,1627.5,3341.2,140.7,63.3,10.2
0.157000,947.0,205.5,1626.5,135.8,3305.0,177.1,956.7,1628.5,3342.9,141.1,63.2,9.8
0.159000,937.2,224.8,1627.9,126.5,3320.4,172.8,962.7,1629.6,3344.5,141.4,63.1,9
0.161000,927.9,241.3,1624.8,146.3,3326.0,124.1,969.3,1630.7,3345.9,141.6,63,8.1
0.163000,923.1,249.8,1619.4,186.6,3328.4,93.2,976.6,1631.9,3347.3,141.9,62.9,7.3
0.165000,926.8,252.4,1615.8,229.7,3332.4,76.4,984.6,1633,3348.6,142.2,62.8,6.6
0.167000,937.7,255.5,1621.3,249.3,3337.5,65.9,993.2,1634.2,3349.8,142.4,62.6,6
0.169000,947.9,265.6,1635.7,240.4,3342.5,62.0,1002.3,1635.3,3351,142.7,62.3,5.4
0.171000,946.0,297.4,1651.6,217.3,3347.5,70.7,1011.9,1636.4,3352,142.9,62.1,4.8
0.173000,926.0,359.6,1661.5,203.2,3352.4,103.5,1021.9,1637.6,3353,143,61.8,4.6
0.175000,893.1,439.6,1664.3,204.7,3359.3,168.2,1032.2,1638.7,3353.9,143.2,61.7,4.6
0.177000,864.4,492.2,1661.8,207.2,3364.5,209.6,1042.8,1639.7,3354.7,143.3,61.5,5.1
0.179000,854.0,520.5,1659.0,197.9,3362.9,210.2,1053.5,1640.8,3355.4,143.4,61.4,6
0.181000,854.6,593.8,1656.8,181.2,3363.6,210.5,1064.4,1641.8,3356,143.4,61.3,7.1
0.183000,850.8,778.4,1651.3,162.3,3375.3,226.7,1075.2,1642.8,3356.5,143.5,61.2,8.2
0.185000,836.1,1124.3,1643.4,138.7,3397.3,258.2,1086,1643.7,3356.9,143.4,61.1,9
0.187000,849.3,1546.6,1638.9,121.8,3420.7,295.1,1096.6,1644.6,3357.3,143.4,61,9.7
0.189000,931.4,2048.9,1635.6,121.4,3438.4,327.7,1106.9,1645.5,3357.5,143.2,60.9,10.4
0.191000,1303.0,2640.4,1628.5,135.5,3434.8,369.6,1117,1646.3,3357.7,143.1,60.8,11
0.193000,1475.6,2085.2,1619.4,162.6,3399.3,417.1,1126.6,1647,3357.7,142.9,60.7,11.4
0.195000,1443.9,1471.4,1610.2,216.4,3361.2,428.0,1135.8,1647.7,3357.7,142.6,60.6,11.6
0.197000,1408.4,1032.8,1608.7,312.6,3351.1,422.1,1144.4,1648.4,3357.6,142.3,60.4,11.5
0.199000,1324.4,743.9,1644.4,388.0,3347.9,454.9,1152.4,1649,3357.3,142,60.3,11.2
0.201000,1240.7,618.9,1683.1,331.5,3318.1,534.3,1159.7,1649.6,3357,141.6,60.1,10.8
0.203000,1214.9,601.9,1696.4,234.4,3265.0,591.7,1166.3,1650.1,3356.6,141.2,60,10.3
0.205000,1250.2,636.2,1693.2,166.1,3227.4,627.4,1172.2,1650.6,3356,140.8,59.8,9.9
0.207000,1319.1,611.7,1686.1,133.7,3239.5,580.5,1177.2,1651,3355.4,140.3,59.6,13
0.209000,1365.5,521.4,1680.3,119.9,3283.1,444.3,1181.3,1651.3,3354.7,139.7,59.5,19.4
0.211000,1368.2,444.7,1671.4,109.9,3318.9,294.8,1184.6,1651.7,3353.9,139.2,59.4,24.1
0.213000,1330.9,429.0,1657.1,99.9,3335.8,201.6,1187,1651.9,3353,138.6,59.2,22.2
0.215000,1260.3,460.2,1641.3,92.8,3345.3,152.4,1188.4,1652.1,3352,138,59,8.7
0.217000,1179.9,500.7,1631.0,95.7,3357.8,128.4,1188.9,1652.3,3350.9,137.4,58.7,-23.1
0.219000,1125.9,529.9,1624.3,113.1,3375.8,113.4,1188.5,1652.4,3349.7,136.8,58.4,-69.8
0.221000,1117.7,566.0,1614.6,148.1,3393.9,100.4,1187.2,1652.4,3348.5,136.1,58,-121.6
0.223000,1164.8,616.6,1603.6,191.6,3401.8,90.8,1185.1,1652.4,3347.1,135.5,57.6,-168.3
0.225000,1263.2,651.1,1594.7,233.4,3396.5,83.6,1182,1652.3,3345.7,134.9,57.2,-200
0.227000,1354.9,636.4,1587.7,253.3,3385.0,79.1,1178.2,1652.2,3344.2,134.3,56.7,-213.4
0.229000,1360.9,616.2,1591.5,235.9,3376.7,81.4,1173.5,1652,3342.7,133.7,56.3,-215
0.231000,1275.8,595.1,1605.4,199.4,3371.8,99.2,1168.2,1651.8,3341.1,133.1,55.8,-210
0.233000,1174.6,556.9,1618.7,188.0,3366.6,148.2,1162.1,1651.4,3339.4,132.6,55.2,-203.3
0.235000,1090.4,535.7,1636.1,212.7,3357.2,277.1,1155.5,1651,3337.7,132.1,54.7,-200
0.237000,1016.9,533.1,1651.0,244.2,3345.8,513.0,1148.2,1650.5,3335.9,131.6,54,-200
0.239000,971.1,507.2,1658.9,256.3,3362.6,676.1,1140.6,1650,3334.1,131.1,53.4,-200
0.241000,978.7,481.6,1668.3,267.2,3409.5,565.4,1132.5,1649.4,3332.3,130.7,52.7,-200
0.243000,1028.2,452.7,1685.0,285.9,3414.8,433.6,1124.1,1648.6,3330.4,130.3,52.2,-200
0.245000,1079.6,401.9,1712.6,301.4,3413.1,376.9,1115.5,1647.8,3328.5,130,51.7,-200
0.247000,1093.2,384.9,1738.6,306.5,3407.2,368.9,1106.7,1647,3326.6,129.6,51.3,-200
0.249000,1036.5,431.7,1741.6,304.9,3396.9,387.4,1097.8,1646,3324.7,129.4,50.8,-200
0.251000,899.5,369.9,1724.0,276.2,3377.1,424.2,1089,1644.9,3322.8,129.1,50.5,-200
0.253000,845.9,237.1,1710.7,239.9,2960.5,4822.7,1080.2,1643.7,3320.9,128.9,50.2,-200
0.255000,842.1,179.4,1695.1,219.5,3144.8,3769.9,1071.7,1642.5,3319,128.7,49.9,-200
0.257000,851.9,175.6,1674.9,206.9,3295.8,539.2,1063.4,1641.1,3317.2,128.6,49.7,-200
0.259000,864.7,201.5,1657.9,197.4,3240.8,605.2,1055.4,1639.7,3315.3,128.5,49.4,-200
0.261000,882.0,254.1,1644.1,191.1,3175.0,652.3,1047.9,1638.1,3313.5,128.4,49,-200
0.263000,909.1,339.9,1631.4,183.0,3171.7,643.4,1040.8,1636.5,3311.7,128.3,48.7,-200
0.265000,965.5,482.8,1617.5,172.0,3258.4,539.7,1034.3,1634.7,3310,128.3,48.4,-200
0.267000,1055.4,623.4,1605.2,166.0,3336.8,382.4,1028.5,1632.9,3308.3,128.2,48,-200
0.269000,1118.8,655.6,1599.6,166.2,3367.6,287.2,1023.3,1630.9,3306.7,128.2,47.7,-200
0.271000,1120.7,592.9,1604.8,173.7,3376.8,256.1,1018.8,1628.9,3305.1,0,47.4,-200
0.273000,1100.1,487.0,1621.3,191.6,3371.7,273.1,1015,1626.7,3303.6,0,47,-200
0.275000,1087.7,390.4,1635.7,207.9,3355.5,324.5,1012.1,1624.5,3302.1,0,46.8,-200
0.277000,1082.7,348.5,1621.8,195.6,3340.7,401.6,1010,1622.2,3300.7,0,46.7,-200
0.279000,1077.7,341.9,1597.8,160.8,3342.1,494.0,1008.7,1619.8,3299.4,0,46.6,-200
0.281000,1074.6,347.3,1584.0,128.1,3361.5,624.2,1008.3,1617.4,3298.2,0,46.6,-200
0.283000,1075.8,352.3,1580.5,106.6,3375.0,798.0,1008.7,1614.8,3297,0,46.6,-200
0.285000,1080.2,333.6,1581.4,88.8,3342.9,933.5,1010,1612.2,3295.9,0,46.7,-200
0.287000,1081.4,282.1,1584.6,74.2,3299.6,873.1,1012.1,1609.6,3294.8,0,46.7,-200
0.289000,1075.4,227.1,1588.6,65.9,3294.8,749.8,1015,1606.9,3293.9,0,46.9,-200
0.291000,1069.3,188.6,1590.8,63.6,3316.6,645.7,1018.7,1604.1,3293,0,47,-200
0.293000,1072.8,175.8,1584.5,61.8,3324.1,570.7,1023.2,1601.4,3292.2,0,47.2,-200
0.295000,1085.3,182.7,1567.9,54.8,3299.5,533.8,1028.3,1598.6,3291.4,0,47.4,-200
0.297000,1101.3,205.3,1552.4,47.3,3259.1,511.3,1034.1,1595.8,3290.7,0,47.6,-200
0.299000,1122.1,247.7,1544.2,45.7,3229.7,479.5,1040.5,1593,3290.1,0,47.6,-200
0.301000,1158.1,323.1,1541.9,52.9,3221.9,461.6,1047.4,1590.2,3289.6,0,47.5,-200
0.303000,1214.7,408.8,1543.7,71.8,3235.6,490.5,1054.8,1587.4,3289.1,0,47.1,-200
0.305000,1275.8,433.0,1552.0,106.8,3273.1,586.3,1062.6,1584.7,3288.7,0,46.7,-200
0.307000,1283.9,380.1,1575.2,134.8,3329.0,786.2,1070.7,1582,3288.3,0,46.2,-200
0.309000,1247.5,346.7,1601.8,122.0,3354.0,1067.9,1079,1579.3,3288,0,45.8,-200
0.311000,1183.6,334.8,1620.3,86.3,3332.0,1229.2,1087.5,1576.7,3287.7,0,45.4,-200
0.313000,1114.6,303.8,1628.7,57.5,3319.1,1134.7,1096.1,1574.2,3287.5,0,45.3,-200
0.315000,1063.7,256.0,1628.1,42.5,3320.7,897.9,1104.7,1571.8,3287.3,0,45.1,-200
0.317000,1032.7,221.3,1616.7,39.7,3318.0,772.5,1113.1,1569.5,3287.1,0,44.9,-200
0.319000,1004.2,196.1,1598.9,42.4,3300.6,814.1,1121.5,1567.3,3287,0,44.7,-200
0.321000,977.1,167.0,1582.9,46.7,3237.8,1002.8,1129.5,1565.2,3286.9,0,44.5,-200
0.323000,964.3,145.1,1575.3,52.2,3111.6,1214.4,1137.3,1563.2,3286.8,0,44.3,-200
0.325000,968.7,143.0,1569.2,58.5,3011.8,1313.4,1144.6,1561.4,3286.8,0,44.2,-200
0.327000,994.7,172.1,1557.9,60.5,3047.3,1356.1,1151.5,1559.7,3286.7,0,44.2,-200
0.329000,1043.4,225.7,1548.5,58.3,3174.8,1337.0,1157.9,1558.2,3286.7,0,44.1,-200
0.331000,1112.9,281.9,1547.6,57.6,3289.6,1158.4,1163.6,1556.8,3286.7,0,44.1,-200
0.333000,1173.5,312.5,1552.2,58.8,3302.2,954.1,1168.7,1555.6,3286.7,0,44,-200
0.335000,1211.4,337.0,1557.8,61.3,3297.9,801.3,1173.1,1554.6,3286.7,0,43.7,-200
0.337000,1224.7,386.8,1561.3,64.9,3333.5,696.9,1176.8,1553.7,3286.7,0,43.3,-200
0.339000,1212.3,479.0,1560.5,67.4,3403.5,659.9,1179.7,1553.1,3286.7,0,42.9,-200
0.341000,1163.7,596.0,1556.0,68.8,3470.6,821.1,1181.7,1552.6,3286.7,0,42.3,-200
0.343000,1125.9,652.7,1549.1,77.9,3418.5,992.5,1183,1552.3,3286.7,0,41.8,-200
0.345000,1153.5,654.9,1539.8,98.7,3387.7,1057.2,1183.4,1552.2,3286.7,0,41.4,-200
