time,f1,b1,f2,b2,f3,b3,f1p,f2p,f3p,f0,intensity,harmonicity
0.025000,840.9,117.8,1758.4,126.9,3159.2,615.7,903.4,1751.5,3083.8,85.5,71.4,12.6
0.027000,848.3,112.2,1761.4,132.8,3165.6,600.0,903,1751,3083.1,85.6,71.5,12.4
0.029000,856.3,118.5,1764.5,141.7,3133.8,619.6,902.4,1750.1,3082,85.6,71.5,11.4
0.031000,866.8,132.9,1763.2,148.5,3092.9,624.1,901.6,1748.9,3080.5,85.7,71.6,10
0.033000,878.6,141.1,1754.8,149.8,3083.5,577.0,900.5,1747.4,3078.6,85.9,71.7,8.7
0.035000,886.5,131.9,1738.9,148.4,3112.0,500.2,899.3,1745.5,3076.3,86.1,71.7,7.9
0.037000,889.1,116.8,1721.1,148.8,3147.9,446.3,898,1743.4,3073.7,86.4,71.8,7.7
0.039000,891.7,107.0,1712.7,151.4,3165.6,441.8,896.5,1741,3070.7,86.8,71.9,7.9
0.041000,896.8,106.4,1720.0,157.5,3150.6,502.8,894.9,1738.4,3067.5,87.3,71.8,8.2
0.043000,903.9,113.7,1734.0,168.5,3099.0,613.9,893.2,1735.7,3064,87.8,71.8,8.5
0.045000,910.9,122.3,1740.3,181.9,3023.7,711.9,891.5,1732.7,3060.2,88.5,71.7,8.7
0.047000,915.0,122.1,1733.2,188.1,2959.3,728.7,889.8,1729.6,3056.3,89.3,71.7,8.8
0.049000,916.9,113.5,1719.4,180.9,2917.4,678.8,888.2,1726.5,3052.2,90.3,71.7,8.8
0.051000,917.7,105.1,1711.2,164.3,2906.3,608.0,886.7,1723.3,3048,91.4,71.7,8.8
0.053000,918.0,104.2,1712.0,150.3,2924.8,548.5,885.3,1720.1,3043.8,92.6,71.7,8.9
0.055000,917.3,112.2,1716.3,146.6,2961.8,513.6,884.1,1716.9,3039.5,93.9,71.7,8.8
0.057000,915.8,121.5,1720.3,153.0,3003.0,502.3,883.1,1713.8,3035.2,95.5,71.6,8.7
0.059000,915.3,124.5,1725.2,165.4,3043.2,497.1,882.4,1710.8,3031,97.2,71.5,8.5
0.061000,916.4,120.7,1731.7,180.2,3072.3,488.6,882,1708,3026.9,99,71.4,8.2
0.063000,918.1,115.7,1737.1,194.9,3078.7,473.5,881.9,1705.4,3022.9,101,71.2,8.2
0.065000,919.5,114.7,1737.5,213.0,3054.5,442.8,882.1,1702.9,3019,103.1,71.1,8.5
0.067000,919.8,119.1,1729.3,239.0,3007.5,391.0,882.7,1700.8,3015.4,105.4,70.9,9.3
0.069000,918.7,124.8,1712.8,271.0,2959.7,325.4,883.8,1698.9,3012,107.7,70.6,10.6
0.071000,916.6,127.0,1694.1,304.6,2931.6,273.9,885.2,1697.3,3008.8,110.2,70.4,12
0.073000,913.9,127.0,1677.2,345.8,2924.5,252.3,887.1,1696,3005.9,112.7,70.2,13.3
0.075000,910.9,129.0,1658.8,390.8,2928.9,254.0,889.4,1695,3003.2,115.4,70,14.1
0.077000,907.8,135.0,1642.3,404.8,2936.0,264.5,892.2,1694.4,3000.8,118,69.7,14.4
0.079000,904.1,145.2,1637.2,376.0,2945.8,282.5,895.4,1694.2,2998.8,120.7,69.5,14.3
0.081000,900.2,157.9,1645.7,334.5,2957.4,312.8,899.1,1694.3,2997,123.4,69.2,14
0.083000,896.9,171.8,1663.0,315.7,2965.6,332.6,903.1,1694.8,2995.6,126,68.9,13.7
0.085000,893.4,188.3,1687.4,333.0,2965.7,318.6,907.6,1695.7,2994.4,128.6,68.5,13.5
0.087000,889.7,204.7,1715.6,372.4,2966.9,302.7,912.5,1696.8,2993.6,131.2,68.2,13.3
0.089000,887.5,218.5,1741.4,402.6,2978.4,305.6,917.7,1698.4,2993,133.6,67.9,13.1
0.091000,887.2,231.3,1755.8,402.4,3004.8,323.3,923.2,1700.2,2992.7,136,67.5,12.9
0.093000,885.8,242.5,1756.3,380.1,3051.4,348.8,929.1,1702.3,2992.7,138.2,67.2,12.8
0.095000,880.2,246.3,1744.7,351.7,3120.6,364.3,935.2,1704.7,2992.9,140.3,66.9,12.6
0.097000,871.0,243.5,1730.3,325.8,3172.1,349.6,941.5,1707.4,2993.3,142.3,66.7,12.6
0.099000,861.2,240.9,1724.8,295.2,3173.7,337.6,948,1710.2,2993.9,144.1,66.4,12.5
0.101000,857.6,237.9,1724.9,256.9,3132.1,345.5,954.6,1713.3,2994.7,145.8,66.2,12.5
0.103000,867.1,234.8,1719.1,227.7,3063.0,358.5,961.3,1716.5,2995.7,147.3,65.9,12.4
0.105000,891.8,230.2,1707.0,218.9,2993.0,360.7,968,1719.7,2996.8,148.7,65.7,12.3
0.107000,923.6,220.4,1696.3,228.4,2970.8,349.1,974.8,1723.1,2998,149.9,65.4,12.2
0.109000,954.3,204.8,1686.7,242.9,2993.7,320.7,981.5,1726.5,2999.4,150.9,65.1,11.9
0.111000,979.3,197.4,1673.7,260.1,3026.6,277.2,988.1,1729.8,3000.8,151.8,64.8,11.7
0.113000,1000.5,212.3,1665.1,292.5,3042.8,250.3,994.6,1733.1,3002.3,152.6,64.4,11.5
0.115000,1021.0,252.4,1686.1,341.8,3032.7,270.8,1000.9,1736.4,3003.9,153.2,64.1,11.4
0.117000,1035.7,319.1,1731.1,360.1,3003.8,325.8,1007.1,1739.4,3005.5,153.7,63.8,11.6
0.119000,1046.5,442.7,1748.0,314.7,2977.4,363.5,1013,1742.3,3007.2,154.1,63.5,12
0.121000,1063.9,578.8,1737.2,229.7,2973.2,360.9,1018.6,1745.1,3008.9,154.4,63.3,12.4
0.123000,1095.8,591.2,1734.7,159.1,2991.9,332.5,1024,1747.5,3010.7,154.6,63.1,12.7
0.125000,1122.2,495.0,1742.2,116.7,3014.8,290.6,1029.1,1749.7,3012.5,154.7,62.9,12.9
0.127000,1129.5,410.5,1751.8,99.5,3025.5,257.5,1033.9,1751.6,3014.4,154.8,62.7,12.9
0.129000,1127.6,375.3,1762.7,105.3,3026.4,246.0,1038.3,1753.2,3016.4,154.8,62.4,12.7
0.131000,1121.0,376.2,1775.7,137.9,3022.4,259.0,1042.5,1754.4,3018.4,154.7,62.2,12.5
0.133000,1108.4,372.4,1794.5,197.5,3013.8,293.0,1046.3,1755.3,3020.6,154.5,62,12.2
0.135000,1088.2,331.9,1823.8,250.9,2996.2,346.7,1049.9,1755.8,3022.8,154.3,61.7,12.1
0.137000,1067.5,279.9,1847.2,247.7,2964.7,421.4,1053.1,1756,3025.3,154.1,61.5,11.9
0.139000,1059.7,255.7,1846.4,218.8,2927.3,496.6,1056.1,1755.7,3027.9,153.9,61.4,11.7
0.141000,1063.3,265.7,1831.4,199.6,2907.7,553.4,1058.8,1755,3030.8,153.6,61.2,11.6
0.143000,1072.4,320.1,1808.4,193.5,2917.0,586.1,1061.3,1754,3033.8,153.3,61,11.6
0.145000,1078.7,432.4,1777.3,192.6,2941.3,599.0,1063.6,1752.6,3037.2,153,60.8,11.6
0.147000,1074.1,593.2,1743.9,189.7,2969.6,619.6,1065.7,1750.8,3040.9,152.7,60.5,15.3
0.149000,1060.0,795.9,1712.6,182.2,3003.1,662.1,1067.7,1748.6,3044.9,152.3,60.3,22.5
0.151000,1050.9,1010.9,1689.7,167.5,3032.0,697.1,1069.6,1746.2,3049.3,152,60,28
0.153000,1067.8,1188.3,1678.4,145.1,3051.5,687.5,1071.5,1743.4,3054.2,151.7,59.7,26.7
0.155000,1114.6,1278.0,1677.2,119.8,3070.9,619.0,1073.3,1740.3,3059.4,151.3,59.4,13.3
0.157000,1137.1,1256.0,1683.1,101.5,3088.9,523.5,1075.1,1736.9,3065.1,151,59.1,-19
0.159000,1086.2,1133.6,1692.7,91.8,3104.0,432.1,1077,1733.3,3071.4,150.7,58.8,-66.8
0.161000,1000.6,933.0,1701.5,91.3,3122.1,362.3,1079,1729.5,3078.1,150.4,58.5,-119.7
0.163000,946.6,751.8,1703.5,102.6,3143.4,317.7,1081.2,1725.5,3085.3,150.1,58.2,-167.6
0.165000,930.6,678.5,1694.3,122.8,3161.9,292.0,1083.4,1721.3,3093.1,149.8,57.9,-200
0.167000,942.2,711.4,1683.7,125.7,3173.8,281.7,1085.9,1717.1,3101.4,149.5,57.6,-213.7
0.169000,986.7,774.9,1684.9,100.6,3181.4,284.0,1088.6,1712.7,3110.2,149.2,57.3,-215.4
0.171000,1058.0,789.0,1691.3,74.0,3186.5,297.5,1091.5,1708.3,3119.6,148.9,57,-210.2
0.173000,1113.0,736.6,1697.1,61.0,3194.9,326.2,1094.7,1704,3129.5,148.7,56.7,-203.4
0.175000,1132.2,704.1,1704.0,62.6,3207.6,394.0,1098.1,1699.6,3139.8,148.4,56.3,-200
0.177000,1134.6,734.7,1714.3,81.9,3210.8,509.2,1101.8,1695.3,3150.6,148.2,56,-200
0.179000,1133.7,773.9,1729.4,126.4,3190.9,646.3,1105.8,1691.1,3161.8,148,55.5,-200
0.181000,1131.6,754.7,1740.5,195.2,3147.1,736.3,1110,1686.9,3173.4,147.8,55,-200
0.183000,1117.6,735.1,1719.1,241.8,3095.3,742.3,1114.5,1683,3185.3,147.6,54.6,-200
0.185000,1081.9,725.1,1678.3,220.1,3080.2,682.8,1119.2,1679.2,3197.4,147.4,54.1,-200
0.187000,1066.6,680.0,1657.5,190.2,3114.5,627.6,1124.1,1675.5,3209.8,147.3,53.6,-200
0.189000,1087.5,624.8,1651.9,178.7,3172.0,573.3,1129.2,1672.1,3222.2,147.1,53,-200
0.191000,1131.5,559.4,1657.9,174.9,3224.8,494.9,1134.4,1668.9,3234.7,147,52.3,-200
0.193000,1182.3,506.7,1670.2,171.6,3256.8,422.7,1139.7,1665.9,3247.2,146.8,51.7,-200
0.195000,1234.8,489.8,1683.0,171.1,3274.3,388.0,1145,1663.2,3259.5,146.7,50.9,-200
0.197000,1269.7,512.5,1691.4,165.6,3286.5,386.8,1150.4,1660.7,3271.6,146.6,50.2,-200
0.199000,1268.4,576.3,1691.4,134.3,3296.7,392.5,1155.7,1658.5,3283.4,146.5,49.7,-200
0.201000,1228.7,645.0,1683.5,85.0,3304.8,391.6,1160.8,1656.5,3294.8,146.5,49.4,-200
0.203000,1177.2,656.0,1674.6,51.3,3320.5,396.1,1165.8,1654.8,3305.7,146.4,49.4,-200
0.205000,1125.1,641.3,1667.5,36.2,3363.2,422.7,1170.5,1653.3,3315.9,146.3,49.3,-200
0.207000,1074.1,628.7,1662.3,31.4,3423.2,404.2,1175,1652,3325.5,146.2,49.1,-200
0.209000,1054.6,595.5,1657.9,31.1,3410.1,388.9,1179,1651,3334.3,0,48.9,-200
0.211000,1075.2,570.1,1651.9,34.9,3357.3,346.8,1182.6,1650.2,3342.2,0,48.4,-200
0.213000,1106.9,544.6,1641.6,42.1,3340.9,275.3,1185.7,1649.5,3349.2,0,47.8,-200
0.215000,1136.0,499.3,1630.2,48.1,3346.8,231.5,1188.3,1649.1,3355.1,0,47.3,-200
0.217000,1185.8,454.8,1629.9,52.9,3360.2,227.8,1190.2,1648.8,3359.9,0,46.9,-200
0.219000,1265.6,422.5,1641.5,61.8,3380.4,264.4,1191.5,1648.7,3363.5,0,46.7,-200
0.221000,1345.6,409.9,1654.2,74.0,3414.0,331.5,1192.1,1648.7,3365.9,0,46.6,-200
0.223000,1400.7,441.2,1658.4,85.2,3463.8,400.0,1191.9,1648.8,3367,0,46.4,-200
0.225000,1397.0,561.3,1654.0,84.5,3532.5,435.3,1190.9,1649,3366.8,0,46.1,-200
0.227000,1280.8,682.6,1650.7,76.2,3521.7,1288.2,1189.1,1649.2,3365.2,0,45.6,-200
0.229000,1162.3,612.1,1649.3,79.0,3227.9,1466.1,1186.4,1649.5,3362.2,0,45,-200
0.231000,1132.7,543.3,1644.2,98.7,3059.1,1236.9,1182.8,1649.9,3357.9,0,44.3,-200
0.233000,1139.8,530.6,1632.2,125.7,3022.8,1031.5,1178.4,1650.2,3352.2,0,43.8,-200
0.235000,1152.8,535.7,1618.0,136.2,3064.6,866.5,1173.2,1650.5,3345.2,0,43.5,-200
0.237000,1164.0,513.3,1616.4,118.9,3150.2,703.3,1167,1650.8,3336.8,0,43.5,-200
0.239000,1176.6,454.8,1628.1,91.5,3230.8,543.8,1160.1,1651.1,3327.1,0,43.6,-200
0.241000,1177.9,389.0,1642.6,67.4,3282.2,427.9,1152.3,1651.3,3316.3,0,43.7,-200
0.243000,1159.8,342.1,1652.9,51.1,3308.0,368.9,1143.8,1651.5,3304.3,0,43.7,-200
0.245000,1129.6,317.8,1658.4,42.0,3319.5,356.1,1134.5,1651.6,3291.2,0,43.7,-200
0.247000,1100.0,313.0,1659.9,38.0,3325.7,370.1,1124.6,1651.6,3277.1,0,43.5,-200
0.249000,1078.1,325.0,1658.7,36.4,3335.4,378.9,1114.1,1651.5,3262.1,0,43.2,-200
0.251000,1072.8,358.6,1653.4,35.7,3351.0,363.0,1103,1651.4,3246.4,0,42.8,-200
0.253000,1081.4,414.8,1644.0,35.3,3366.2,347.9,1091.5,1651.2,3230,0,42.4,-200
0.255000,1076.1,482.5,1634.5,36.3,3373.3,380.9,1079.6,1650.9,3213,0,41.9,-200
0.257000,1028.1,536.7,1627.9,41.8,3361.8,526.6,1067.4,1650.5,3195.7,0,41.4,-200
0.259000,968.2,550.4,1627.4,58.3,3294.3,837.7,1055,1650,3178,0,40.8,-200
0.261000,935.3,558.4,1637.5,99.3,3143.0,1117.7,1042.6,1649.5,3160.3,0,40.2,-200
0.263000,937.0,565.3,1667.5,165.4,3119.5,1158.2,1030.1,1648.9,3142.5,0,39.8,-200
0.265000,938.4,536.0,1692.6,170.9,3158.5,995.5,1017.7,1648.3,3125,0,39.7,-200
0.267000,920.5,482.5,1681.5,108.4,3136.3,842.1,1005.6,1647.6,3107.7,0,39.8,-200
0.269000,905.3,425.5,1669.5,65.1,3097.6,803.5,993.7,1647,3090.9,0,40.2,-200
0.271000,900.3,389.3,1664.2,45.6,3046.0,877.1,982.3,1646.3,3074.6,0,40.7,-200
0.273000,907.7,374.2,1661.8,38.8,2986.8,1022.0,971.3,1645.6,3059.1,0,41.1,-200
0.275000,923.3,366.9,1658.7,37.4,2967.4,1135.7,961,1644.9,3044.5,0,41.4,-200
0.277000,939.4,368.8,1654.6,37.5,3042.6,1153.7,951.3,1644.2,3030.8,0,41.4,-200
0.279000,952.5,391.1,1652.0,38.9,3180.5,1049.9,942.4,1643.6,3018.2,0,41.4,-200
0.281000,963.1,431.2,1651.7,42.6,3301.0,870.8,934.4,1643,3006.9,0,41.3,-200
0.283000,971.2,470.1,1651.4,49.4,3365.1,735.6,927.3,1642.4,2996.8,0,41.1,-200
0.285000,984.3,498.4,1646.7,58.4,3392.5,741.4,921.1,1642,2988.1,0,41,-200
0.287000,1003.8,528.3,1634.8,66.2,3387.5,1075.2,916.1,1641.6,2981,0,40.9,-200
0.289000,1006.6,561.3,1621.1,71.3,3014.7,1847.8,912,1641.3,2975.3,0,40.8,-200
0.291000,993.6,581.6,1611.5,75.4,2479.2,1480.2,909.2,1641,2971.2,0,40.8,-200
0.293000,989.4,582.3,1613.0,80.0,2369.3,1120.1,907.4,1640.9,2968.8,0,40.8,-200
0.295000,987.3,524.1,1629.8,83.8,2373.2,950.8,906.8,1640.8,2967.9,0,40.7,-200
