time,f1,b1,f2,b2,f3,b3,f1p,f2p,f3p,f0,intensity,harmonicity
0.025000,791.6,69.8,1781.2,149.9,3404.7,242.2,762.2,1807.6,3373.2,187.7,76.4,13.4
0.027000,799.7,76.1,1791.2,166.5,3396.5,234.9,764.9,1807.2,3371.8,187.9,76.2,13.8
0.029000,809.1,78.3,1797.3,161.5,3388.7,226.6,769.4,1806.7,3369.5,188.3,76.1,14.5
0.031000,819.7,75.6,1801.7,141.1,3377.5,211.5,775.5,1805.9,3366.4,188.6,75.9,15.2
0.033000,829.6,71.7,1805.7,125.9,3362.9,189.9,783,1804.9,3362.4,189,75.7,15.6
0.035000,836.4,69.3,1808.9,121.6,3349.6,169.7,791.6,1803.7,3357.6,189.4,75.5,15.5
0.037000,839.8,67.1,1810.2,119.6,3337.9,154.4,801.1,1802.2,3352.2,189.9,75.2,14.4
0.039000,839.5,63.8,1808.4,112.9,3328.6,149.7,811.2,1800.5,3346.2,190.4,74.9,12.7
0.041000,835.5,60.4,1803.6,105.4,3320.8,163.0,821.4,1798.6,3339.7,190.9,74.6,10.8
0.043000,828.3,58.6,1796.3,107.5,3311.6,206.1,831.6,1796.3,3332.9,191.5,74.3,9.1
0.045000,820.1,60.3,1786.8,132.5,3298.8,293.1,841.3,1793.8,3325.7,192.1,74,8.2
0.047000,814.3,67.5,1777.4,199.9,3291.2,408.5,850.3,1791.1,3318.4,192.7,73.8,8.1
0.049000,812.7,79.8,1777.6,326.4,3302.5,497.8,858.2,1788.1,3311.1,193.4,73.6,8.5
0.051000,813.0,90.9,1797.9,444.7,3321.0,517.8,864.7,1784.8,3303.8,194.1,73.5,9.4
0.053000,812.3,97.3,1816.2,515.5,3317.3,486.5,869.8,1781.3,3296.7,194.8,73.5,10.4
0.055000,811.7,99.2,1817.1,576.7,3297.5,438.6,873.1,1777.5,3289.9,195.6,73.5,11.5
0.057000,812.3,98.1,1804.5,601.1,3280.8,377.2,874.5,1773.6,3283.5,196.3,73.5,12.7
0.059000,813.0,94.1,1789.3,506.8,3271.7,307.7,874.2,1769.5,3277.6,197.1,73.5,14.3
0.061000,813.3,87.7,1777.1,345.8,3261.1,247.7,871.9,1765.2,3272.2,197.9,73.5,15.9
0.063000,813.8,81.2,1765.6,227.7,3247.3,212.7,867.9,1760.8,3267.5,198.7,73.4,17.4
0.065000,814.1,77.8,1754.0,172.1,3239.4,204.5,862.2,1756.3,3263.5,199.5,73.3,18.5
0.067000,814.0,78.9,1742.4,159.5,3246.1,212.3,855.1,1751.7,3260.2,200.4,73.2,19.2
0.069000,813.7,81.9,1728.2,168.9,3264.0,218.7,846.8,1747.1,3257.7,201.2,73.1,19.8
0.071000,813.2,84.4,1712.0,182.2,3276.8,222.8,837.6,1742.6,3256,202,73,20.1
0.073000,812.7,88.2,1703.3,184.9,3278.8,240.5,827.9,1738.1,3255.1,202.9,72.9,20.1
0.075000,813.8,94.4,1707.1,181.8,3276.4,276.5,817.9,1733.7,3255.1,203.7,72.9,19.8
0.077000,818.3,98.4,1714.0,188.2,3275.5,307.5,808.2,1729.5,3255.9,204.5,72.9,19
0.079000,827.1,96.7,1719.3,214.6,3275.7,306.9,799,1725.4,3257.5,205.4,72.9,17.6
0.081000,837.0,93.3,1722.4,265.7,3275.3,282.0,790.8,1721.5,3259.8,206.2,73,16
0.083000,844.6,92.6,1724.7,324.4,3274.6,260.4,783.9,1717.9,3262.8,207,73.1,14.7
0.085000,849.1,94.4,1728.0,350.7,3278.8,254.9,778.6,1714.5,3266.6,207.9,73.1,14.1
0.087000,850.7,96.6,1730.9,331.9,3290.1,267.4,775.2,1711.4,3270.9,208.7,73.2,14.3
0.089000,850.4,97.4,1729.1,291.5,3305.9,302.5,773.8,1708.5,3275.8,209.5,73.2,15.2
0.091000,849.5,97.6,1721.8,261.4,3318.6,362.7,774.7,1705.9,3281.2,210.3,73.1,16.3
0.093000,848.3,99.6,1710.1,256.7,3318.1,411.9,778,1703.5,3287,211.2,73.1,17.5
0.095000,847.3,104.0,1695.5,274.2,3301.8,383.8,783.5,1701.4,3293.2,212,73,18.4
0.097000,847.0,109.2,1683.1,296.9,3285.5,315.7,791.2,1699.4,3299.6,212.8,72.9,18.9
0.099000,847.6,112.6,1675.1,306.7,3273.8,261.7,801,1697.6,3306.4,213.7,72.8,19.4
0.101000,848.7,113.7,1668.8,305.0,3266.3,234.2,812.5,1696,3313.3,214.5,72.7,19.8
0.103000,849.7,113.2,1663.1,306.2,3259.8,224.7,825.6,1694.3,3320.3,215.3,72.6,20
0.105000,849.9,109.3,1663.5,310.0,3251.6,227.4,839.6,1692.7,3327.4,216.2,72.4,20.2
0.107000,848.9,103.1,1674.0,305.8,3244.9,244.1,854.3,1691.1,3334.6,217.1,72.3,20.1
0.109000,846.6,98.6,1691.2,288.5,3250.8,283.2,869.1,1689.3,3341.7,217.9,72.2,19.8
0.111000,844.6,99.2,1704.3,268.9,3279.9,339.6,883.3,1687.4,3348.8,218.8,72.1,19.4
0.113000,844.1,104.2,1709.6,260.2,3324.1,391.1,896.5,1685.3,3355.9,219.7,72,19.2
0.115000,844.8,111.3,1710.8,264.5,3363.7,421.6,908.1,1682.9,3362.9,220.6,71.8,19.1
0.117000,845.7,118.4,1713.4,272.1,3393.7,426.0,917.4,1680.1,3369.9,221.5,71.7,19.5
0.119000,846.2,125.8,1720.1,274.5,3429.6,403.5,923.9,1677,3376.7,222.5,71.6,20.3
0.121000,846.3,135.0,1725.7,267.5,3471.6,358.2,927.1,1673.5,3383.5,223.4,71.5,21
0.123000,846.8,148.7,1719.0,250.0,3502.2,310.0,926.5,1669.5,3390.3,224.4,71.4,21.6
0.125000,847.9,166.9,1696.3,218.9,3511.1,277.8,921.6,1665.1,3396.9,225.3,71.2,21.8
0.127000,849.1,183.9,1669.6,180.2,3502.2,257.6,912.3,1660.3,3403.6,226.3,71.1,21.4
0.129000,850.4,200.4,1649.0,147.7,3482.4,240.1,898.2,1655,3410.2,227.3,70.9,20.6
0.131000,852.1,226.1,1636.9,136.1,3454.9,231.4,879.3,1649.3,3416.8,228.3,70.8,19.6
0.133000,852.9,273.3,1629.2,148.5,3421.2,238.3,855.5,1643.2,3423.4,229.3,70.6,18.6
0.135000,847.3,350.0,1620.6,183.2,3391.2,257.1,826.9,1636.8,3430,230.3,70.5,17.8
0.137000,826.3,452.5,1605.9,230.0,3376.3,279.3,793.9,1630.2,3436.7,231.3,70.3,17.2
0.139000,776.1,573.9,1581.0,274.7,3378.6,297.0,756.7,1623.3,3443.4,232.3,70.2,16.6
0.141000,698.3,670.0,1549.2,301.6,3396.6,305.2,715.8,1616.4,3450.2,233.3,70,16.1
0.143000,631.7,694.7,1521.3,305.1,3424.9,308.9,671.8,1609.5,3457.1,234.3,69.8,15.9
0.145000,608.7,668.3,1514.6,282.8,3460.1,303.2,625.3,1602.6,3464.1,235.3,69.7,16.2
0.147000,606.8,633.8,1536.4,238.3,3488.4,258.6,577.2,1596,3471.1,236.3,69.5,17.2
0.149000,597.6,622.9,1571.2,189.1,3489.7,202.0,528.2,1589.8,3478.2,237.2,69.3,18.7
0.151000,563.7,650.4,1599.4,153.8,3480.8,173.5,479.2,1584,3485.4,238.1,69.1,20.5
0.153000,489.5,689.4,1615.5,137.5,3473.8,171.7,431.1,1578.7,3492.7,239,68.9,22.2
0.155000,372.9,604.1,1622.0,136.0,3468.5,182.2,384.8,1574.2,3500,239.9,68.6,23.2
0.157000,334.1,433.9,1621.2,142.5,3463.5,192.9,341.2,1570.5,3507.3,240.7,68.4,23.7
0.159000,323.7,348.6,1615.3,144.3,3456.9,207.7,301.3,1567.6,3514.7,241.5,68.1,23.9
0.161000,317.3,326.0,1610.7,136.0,3453.7,236.6,265.9,1565.8,3522,242.3,67.8,23.7
0.163000,309.6,337.7,1609.6,130.3,3472.3,292.7,235.6,1565,3529.3,243.1,67.5,23.5
0.165000,299.6,366.6,1608.9,134.6,3526.8,370.1,211.3,1565.3,3536.5,243.8,67.2,23.2
0.167000,289.7,397.9,1606.1,144.1,3603.9,410.6,193.3,1566.8,3543.6,244.5,66.8,22.8
0.169000,283.9,419.2,1603.8,150.5,3656.8,378.2,182.3,1569.4,3550.5,245.1,66.4,22.3
0.171000,285.8,401.7,1604.2,147.1,3653.0,319.6,178.4,1573.3,3557.3,245.7,66,21.6
0.173000,290.4,335.1,1603.6,132.2,3612.0,260.6,181.9,1578.3,3563.9,246.3,65.6,21
0.175000,289.9,265.1,1597.3,104.9,3566.2,210.8,192.8,1584.4,3570.3,246.9,65.2,20.4
0.177000,286.2,227.1,1586.1,76.4,3538.8,178.5,210.8,1591.5,3576.5,247.4,64.8,19.9
0.179000,282.7,215.5,1574.6,58.0,3535.0,169.6,235.8,1599.7,3582.4,247.9,64.3,19.3
0.181000,280.5,222.0,1567.3,52.6,3555.3,188.8,267.2,1608.7,3588,248.4,63.8,18.8
0.183000,278.1,244.6,1567.6,58.0,3595.7,219.6,304.5,1618.4,3593.3,248.9,63.3,18.3
0.185000,274.6,282.9,1580.7,71.4,3630.7,219.3,347,1628.8,3598.3,249.3,62.8,17.8
0.187000,271.1,326.1,1605.6,83.6,3632.5,188.8,393.8,1639.7,3602.9,249.8,62.2,20.9
0.189000,268.3,372.4,1629.5,87.8,3619.6,158.1,443.9,1650.8,3607.3,250.2,61.5,27.4
0.191000,262.3,433.3,1633.1,88.0,3615.8,143.5,496.5,1662.1,3611.3,250.6,60.9,32.3
0.193000,251.7,489.7,1610.8,85.3,3631.8,141.8,550.3,1673.3,3614.9,251,60.2,30.4
0.195000,249.6,492.1,1580.8,72.9,3655.3,139.1,604.3,1684.3,3618.2,251.4,59.4,16.3
0.197000,254.5,469.2,1563.7,58.5,3666.2,137.0,657.4,1694.9,3621.2,251.8,58.6,-16.6
0.199000,254.4,472.6,1559.9,51.8,3648.1,2520.3,708.4,1704.9,3623.8,252.2,57.7,-65.1
0.201000,240.9,544.6,1565.5,59.2,3601.4,2232.6,756.4,1714.2,3626.2,252.6,56.7,-118.7
0.203000,189.7,726.4,1577.9,86.1,3521.8,2630.5,800.2,1722.6,3628.1,252.9,55.7,-167.1
0.205000,1591.7,127.9,3312.2,4276.4,3674.4,130.1,838.9,1730,3629.8,253.3,54.7,-200
0.207000,1109.1,2597.9,1600.7,165.1,3667.5,129.7,871.9,1736.2,3631.2,253.6,53.6,-213.8
0.209000,1284.4,1755.5,1601.3,178.5,3633.0,126.4,898.2,1741.1,3632.2,254,52.5,-215.6
0.211000,1333.8,1561.4,1592.0,176.7,3595.9,108.6,917.5,1744.7,3633,254.3,51.5,-210.4
0.213000,1372.4,1802.6,1570.3,158.4,3590.4,100.3,929.2,1746.8,3633.4,254.6,50.4,-203.5
0.215000,1176.2,2735.9,1548.8,121.4,3612.4,112.7,933.1,1747.6,3633.6,254.9,49.7,-200
