time,f1,b1,f2,b2,f3,b3,f1p,f2p,f3p,f0,intensity,harmonicity
0.026000,854.3,95.2,1697.1,217.7,2996.9,1637.2,879.1,1691.1,3052.7,162.8,77.2,5.3
0.028000,865.4,98.4,1693.0,202.0,2950.5,1406.0,879.8,1691.4,3050.5,162.2,77.2,5.4
0.030000,878.4,95.7,1693.7,182.5,2969.9,1001.0,880.9,1691.9,3046.9,161.7,77.1,5.3
0.032000,890.4,92.5,1702.6,170.1,3001.3,727.3,882.5,1692.7,3042,161.1,77.1,5.3
0.034000,898.8,91.3,1713.3,167.9,3009.9,585.5,884.6,1693.6,3035.9,160.5,77,5.4
0.036000,902.0,90.9,1718.4,170.5,2993.9,516.8,887,1694.8,3028.7,159.9,77,6
0.038000,901.8,90.3,1717.1,173.8,2962.5,467.8,889.9,1696.3,3020.7,159.3,76.9,7.1
0.040000,901.1,88.9,1712.7,172.1,2934.7,427.2,893.1,1698,3012.1,158.8,76.9,8.3
0.042000,901.5,87.0,1709.2,163.2,2923.1,394.8,896.6,1699.9,3003,158.2,76.8,9.5
0.044000,903.0,85.3,1707.0,151.0,2933.0,374.4,900.3,1702.1,2993.7,157.7,76.6,10.4
0.046000,905.5,84.5,1705.1,140.1,2960.2,361.2,904.4,1704.5,2984.5,157.2,76.4,10.8
0.048000,908.9,83.6,1703.8,131.2,2994.4,342.6,908.6,1707.2,2975.6,156.7,76.2,10.5
0.050000,911.7,82.9,1705.2,127.0,3020.1,320.3,913,1710.1,2967.2,156.2,75.9,10
0.052000,913.9,83.3,1709.6,128.0,3034.8,303.2,917.6,1713.3,2959.7,155.8,75.5,9.4
0.054000,916.6,84.9,1714.8,134.2,3041.1,304.5,922.2,1716.8,2953.2,155.5,75.1,9
0.056000,920.5,87.2,1717.5,141.9,3042.9,325.7,927,1720.5,2947.9,155.1,74.7,9.2
0.058000,926.8,90.8,1716.6,146.7,3041.8,359.7,931.8,1724.4,2944.1,154.9,74.3,9.9
0.060000,934.3,95.5,1713.2,148.9,3038.6,397.8,936.7,1728.6,2941.8,154.7,73.8,10.8
0.062000,941.4,99.2,1709.6,151.6,3036.7,428.2,941.6,1733.1,2941.3,154.5,73.4,11.7
0.064000,947.5,101.5,1707.5,158.1,3039.9,431.6,946.6,1737.7,2942.7,154.4,73,12.4
0.066000,953.0,103.7,1706.1,170.7,3044.5,403.7,951.5,1742.5,2945.9,154.3,72.5,12.7
0.068000,958.9,105.4,1704.8,186.6,3047.0,368.4,956.6,1747.5,2951.1,154.3,72.1,12.7
0.070000,964.4,104.2,1706.3,198.0,3048.3,354.4,961.6,1752.7,2958.1,154.3,71.6,12.6
0.072000,970.4,99.9,1712.9,208.3,3047.1,371.5,966.8,1757.9,2967.1,154.4,71.2,12.2
0.074000,977.3,93.4,1724.3,228.5,3037.3,432.0,972,1763.3,2977.8,154.5,70.7,11.7
0.076000,984.7,86.3,1738.4,259.0,3014.9,521.5,977.3,1768.7,2990.2,154.6,70.2,10.8
0.078000,993.6,78.5,1757.1,282.8,2991.0,591.2,982.8,1774.1,3004,154.8,69.7,9.3
0.080000,1001.8,71.2,1777.8,281.5,2996.9,577.5,988.5,1779.4,3019.1,155,69.2,7.5
0.082000,1007.5,66.5,1796.0,269.4,3030.3,479.7,994.4,1784.7,3035.4,155.3,68.7,5.9
0.084000,1010.3,67.0,1811.9,266.9,3057.1,366.2,1000.5,1789.8,3052.4,155.5,68.1,4.7
0.086000,1010.7,75.3,1830.4,279.6,3069.4,298.1,1007,1794.8,3070,155.8,67.6,4.3
0.088000,1008.9,91.9,1853.8,292.1,3072.7,258.9,1013.7,1799.5,3088,156.1,67,4.6
0.090000,1005.3,110.9,1872.4,289.0,3066.2,230.8,1020.9,1804,3105.9,156.3,66.5,5.4
0.092000,1001.6,129.0,1881.0,275.7,3053.0,199.7,1028.4,1808.2,3123.5,156.6,66,6.4
0.094000,997.7,149.5,1880.2,261.0,3042.8,169.9,1036.3,1812,3140.6,156.9,65.6,7.3
0.096000,993.3,175.5,1872.8,251.8,3042.8,157.8,1044.7,1815.4,3156.9,157.1,65.3,9
0.098000,989.9,212.6,1859.0,252.4,3058.1,174.8,1053.5,1818.3,3172.1,157.3,65,15.6
0.100000,993.0,256.2,1840.0,259.6,3102.2,226.3,1062.8,1820.7,3186,157.5,64.8,23
0.102000,1006.5,285.0,1818.4,249.0,3178.6,266.7,1072.5,1822.6,3198.3,157.7,64.5,26.1
0.104000,1030.4,294.8,1803.8,221.0,3231.8,248.1,1082.7,1824,3209,157.8,64.3,19.8
0.106000,1061.8,325.5,1804.9,201.2,3229.9,239.7,1093.2,1824.8,3217.8,157.9,64.1,-2.9
0.108000,1102.0,423.2,1807.8,191.2,3196.4,266.7,1104.1,1824.9,3224.7,158,63.9,-49.5
0.110000,1150.7,627.1,1799.2,187.4,3159.5,300.5,1115.4,1824.4,3229.6,158.1,63.6,-107.3
0.112000,1217.2,976.3,1780.9,173.3,3144.4,307.8,1126.9,1823.3,3232.6,158.1,63.4,-160.9
0.114000,1307.0,1348.9,1768.5,142.1,3152.6,278.0,1138.6,1821.5,3233.5,158.1,63.2,-195
0.116000,1354.0,1293.4,1770.1,122.2,3165.7,228.8,1150.3,1819,3232.6,158,63,-194
0.118000,1323.8,916.2,1779.5,121.5,3179.7,177.2,1162.2,1815.9,3229.9,158,62.8,-154.1
0.120000,1266.7,602.7,1789.0,130.4,3189.8,148.2,1173.9,1812.1,3225.6,157.9,62.6,-93.9
0.122000,1222.1,419.1,1794.2,154.7,3191.1,141.9,1185.5,1807.7,3219.9,157.8,62.4,-33.7
0.124000,1193.0,309.0,1800.9,197.2,3188.4,145.7,1196.7,1802.7,3213,157.6,62.2,6.2
0.126000,1174.8,238.2,1808.4,237.8,3190.2,152.3,1207.6,1797,3205.3,157.5,62,7.1
0.128000,1163.4,191.7,1808.6,260.9,3196.0,164.6,1217.9,1790.9,3197,157.3,61.8,-27
0.130000,1158.4,170.9,1799.0,254.7,3199.9,184.1,1227.6,1784.2,3188.5,157.1,61.6,-80.7
0.132000,1157.2,167.7,1788.9,226.8,3199.4,200.3,1236.6,1777,3180,156.9,61.4,-138.6
0.134000,1157.8,180.2,1783.8,189.7,3198.7,190.7,1244.6,1769.5,3172.1,156.7,61.1,-185.5
0.136000,1161.0,215.4,1780.4,156.0,3201.4,163.0,1251.7,1761.5,3164.9,156.5,60.8,-208.6
0.138000,1174.1,281.0,1772.6,130.4,3204.2,148.3,1257.6,1753.2,3158.9,156.3,60.5,-215.6
0.140000,1203.7,331.6,1762.7,119.2,3206.8,160.7,1262.4,1744.6,3154.4,156.1,60.2,-213.3
0.142000,1237.8,336.4,1755.5,120.7,3217.1,197.6,1265.9,1735.8,3151.7,155.9,59.9,-206.7
0.144000,1259.8,339.2,1749.2,130.5,3244.8,239.9,1268,1726.9,3151.1,155.7,59.5,-201
0.146000,1266.2,382.7,1738.9,143.2,3270.4,231.2,1268.6,1717.8,3152.9,155.5,59.2,-200
0.148000,1260.3,496.4,1720.1,154.8,3269.5,182.6,1267.8,1708.7,3157.3,155.3,58.8,-200
0.150000,1244.7,649.8,1696.9,157.3,3257.2,143.5,1265.5,1699.6,3164.5,155.1,58.4,-200
0.152000,1230.8,786.5,1669.3,159.2,3249.4,123.7,1261.7,1690.6,3174.5,154.9,58,-200
0.154000,1226.2,913.3,1631.0,164.8,3250.9,126.8,1256.3,1681.7,3187.6,154.7,57.5,-200
0.156000,1224.3,1028.1,1595.0,170.1,3266.9,155.9,1249.5,1673,3203.6,154.6,56.9,-200
0.158000,1248.0,968.9,1583.4,200.0,3314.7,198.3,1241.2,1664.5,3222.6,154.4,56.3,-200
0.160000,1263.6,669.8,1624.1,255.5,3382.1,185.2,1231.4,1656.3,3244.4,154.3,55.7,-200
0.162000,1247.7,465.3,1679.2,246.3,3410.9,132.5,1220.4,1648.4,3269,154.2,55,-200
0.164000,1256.5,399.0,1695.5,231.1,3405.5,100.8,1208.1,1640.8,3296,154.1,54.3,-200
0.166000,1281.2,408.5,1683.3,235.4,3390.9,90.3,1194.7,1633.6,3325.2,154,53.6,-200
0.168000,1310.4,487.3,1648.2,242.0,3375.7,91.2,1180.3,1626.8,3356.3,153.9,52.8,-200
0.170000,1321.0,656.7,1605.1,216.9,3366.4,100.7,1165,1620.5,3388.9,0,51.8,-200
0.172000,1280.0,881.4,1581.5,172.0,3365.6,116.6,1149,1614.6,3422.6,0,50.9,-200
0.174000,1180.8,1074.2,1576.7,137.6,3370.4,138.3,1132.5,1609.1,3457,0,49.9,-200
0.176000,1052.9,1130.2,1583.8,110.8,3373.9,164.5,1115.6,1604.1,3491.4,0,49,-200
0.178000,972.9,1003.8,1596.2,90.4,3379.6,198.1,1098.5,1599.6,3525.6,0,48.1,-200
0.180000,967.4,821.3,1606.8,78.9,3402.0,233.7,1081.4,1595.5,3558.8,0,47.4,-200
0.182000,968.3,643.7,1611.7,70.6,3447.9,268.4,1064.4,1591.9,3590.7,0,47.3,-200
0.184000,970.0,505.4,1610.6,64.8,3503.5,295.5,1047.8,1588.8,3620.6,0,46.9,-200
0.186000,979.0,435.0,1606.8,65.3,3544.9,306.0,1031.6,1586.1,3648,0,46.3,-200
0.188000,998.1,415.9,1604.7,75.6,3568.3,264.6,1016.2,1583.8,3672.6,0,46.1,-200
0.190000,1026.3,427.7,1607.3,95.0,3571.7,181.9,1001.6,1581.9,3693.7,0,45.6,-200
0.192000,1048.7,436.6,1612.5,116.0,3571.1,119.5,988,1580.3,3711,0,44.7,-200
0.194000,1040.8,414.2,1615.2,123.9,3574.0,89.6,975.5,1579.1,3724.1,0,43.9,-200
0.196000,1005.3,371.4,1612.9,113.6,3579.9,82.6,964.2,1578.3,3732.6,0,43.3,-200
0.198000,964.8,340.1,1606.5,94.3,3589.0,88.5,954.3,1577.7,3736.4,0,42.9,-200
0.200000,939.1,345.1,1598.1,78.5,3601.1,103.4,945.8,1577.4,3735.2,0,42.9,-200
0.202000,929.8,388.8,1588.9,71.7,3617.4,128.5,938.7,1577.3,3728.9,0,42.9,-200
0.204000,935.7,460.3,1579.4,73.0,3545.3,2836.4,933.2,1577.5,3717.5,0,43.1,-200
0.206000,951.4,517.4,1570.9,78.6,3670.6,2586.1,929.2,1577.8,3700.8,0,43.4,-200
0.208000,961.3,507.5,1564.0,83.8,3689.1,178.6,926.8,1578.2,3679.2,0,43.5,-200
0.210000,948.6,413.3,1560.4,81.4,3686.2,176.0,925.8,1578.8,3652.7,0,43.6,-200
0.212000,926.9,297.0,1559.0,69.3,3680.0,194.3,926.3,1579.5,3621.5,0,43.6,-200
0.214000,909.1,205.8,1556.8,54.1,3677.3,242.8,928.2,1580.3,3586.1,0,43.6,-200
0.216000,902.7,150.8,1553.4,43.7,3667.6,326.3,931.4,1581.1,3546.8,0,43.5,-200
0.218000,907.2,119.9,1549.0,37.9,3614.1,354.0,935.8,1582,3504.1,0,43.4,-200
0.220000,918.1,110.4,1544.8,36.7,3593.9,307.7,941.2,1582.8,3458.4,0,43.4,-200
0.222000,930.3,119.0,1542.3,40.4,3585.8,297.0,947.6,1583.7,3410.5,0,43.4,-200
0.224000,937.9,144.3,1543.5,50.8,3570.7,335.7,954.8,1584.6,3360.7,0,43.4,-200
0.226000,933.6,173.0,1549.9,66.3,3562.6,392.0,962.6,1585.4,3309.9,0,43.5,-200
0.228000,921.2,188.8,1561.0,82.1,3595.5,429.2,970.9,1586.2,3258.7,0,43.6,-200
0.230000,917.1,192.5,1568.3,90.2,3658.4,392.9,979.4,1587,3207.7,0,43.6,-200
0.232000,930.1,201.9,1567.8,90.7,3685.3,304.3,988.1,1587.7,3157.7,0,43.5,-200
0.234000,956.7,221.8,1568.1,88.8,3678.6,244.3,996.7,1588.3,3109.3,0,43.3,-200
0.236000,989.4,250.6,1575.6,91.8,3656.8,215.0,1005.1,1588.9,3063.3,0,42.9,-200
0.238000,1034.2,296.3,1591.5,107.3,3624.5,205.2,1013.1,1589.5,3020.1,0,42.4,-200
0.240000,1101.4,358.3,1616.5,147.9,3593.8,220.2,1020.5,1589.9,2980.5,0,41.7,-200
0.242000,1193.2,419.4,1655.2,238.3,3585.9,268.9,1027.3,1590.4,2944.9,0,41.1,-200
0.244000,1268.0,528.7,1681.7,390.3,1785.3,3545.9,1033.2,1590.7,2913.9,0,40.6,-200
0.246000,1122.8,758.6,1600.4,338.4,2137.9,1218.9,1038.2,1591,2888,0,40.3,-200
0.248000,994.7,580.4,1599.0,198.4,2253.2,758.8,1042.3,1591.2,2867.4,0,40.1,-200
0.250000,961.2,468.9,1599.8,151.4,2269.4,673.8,1045.2,1591.4,2852.4,0,40.2,-200
0.252000,954.5,429.0,1597.1,146.0,2264.6,768.2,1047,1591.5,2843.4,0,40.2,-200
0.254000,956.1,433.1,1595.3,164.5,2249.0,1042.7,1047.6,1591.5,2840.4,0,40.3,-200
