time,f1,b1,f2,b2,f3,b3,f1p,f2p,f3p,f0,intensity,harmonicity
0.025000,739.8,132.1,1752.2,525.5,2983.3,514.9,768.3,1801.2,3016.6,210.1,66.3,10.8
0.027000,745.9,129.6,1731.0,565.5,2974.8,524.0,769.2,1800.4,3018.6,210.3,66.2,11.1
0.029000,752.3,130.6,1714.0,605.4,2978.2,586.5,770.8,1799.1,3021.9,210.6,66.1,11.2
0.031000,759.6,135.9,1718.4,609.0,3009.8,659.7,772.9,1797.3,3026.7,210.8,66,11.2
0.033000,766.7,147.1,1737.5,602.0,3049.1,631.3,775.5,1795.2,3032.7,211,65.8,11.2
0.035000,773.7,165.6,1762.3,644.6,3057.0,533.4,778.6,1792.6,3040.2,211.3,65.6,11.3
0.037000,785.0,182.6,1808.8,701.5,3048.1,448.6,782.1,1789.8,3048.9,211.6,65.4,11.4
0.039000,797.1,182.7,1854.8,656.6,3046.0,390.7,786,1786.7,3059,211.9,65.3,11.5
0.041000,804.2,174.2,1869.5,533.9,3053.2,340.8,790.1,1783.4,3070.4,212.2,65.2,11.6
0.043000,808.1,166.5,1862.7,417.0,3063.4,294.2,794.4,1780.1,3083.1,212.6,65.2,11.8
0.045000,811.8,159.3,1849.2,336.6,3075.8,261.1,798.8,1776.8,3097,212.9,65.1,12.4
0.047000,816.3,150.1,1835.3,299.8,3098.2,258.9,803.3,1773.6,3112,213.3,65.1,13.2
0.049000,821.6,138.5,1824.9,301.4,3140.1,289.3,807.7,1770.6,3128.2,213.6,65.2,14.4
0.051000,827.5,124.9,1815.8,333.5,3205.4,311.4,812,1767.8,3145.3,214,65.2,15.7
0.053000,832.1,114.3,1801.8,393.9,3253.9,286.4,816.2,1765.3,3163.3,214.4,65.2,16.9
0.055000,835.0,110.4,1779.9,465.4,3272.8,249.0,820.2,1763.2,3181.9,214.8,65.2,18
0.057000,836.3,110.6,1759.3,471.8,3275.3,224.5,823.8,1761.5,3201.2,215.2,65.2,19
0.059000,836.6,112.2,1752.3,411.4,3273.6,221.4,827.2,1760.2,3220.8,215.5,65.2,19.9
0.061000,836.9,116.7,1752.5,355.0,3274.8,239.8,830.3,1759.4,3240.6,215.9,65.1,20.8
0.063000,837.3,122.5,1752.2,326.7,3281.1,273.5,833,1759.1,3260.4,216.4,65.1,21.5
0.065000,837.6,127.0,1747.6,317.5,3290.5,318.1,835.5,1759.2,3280,216.8,65,21.9
0.067000,837.8,129.3,1740.3,326.3,3296.9,358.1,837.5,1759.8,3299.1,217.2,64.9,21.8
0.069000,838.0,131.8,1736.5,355.0,3296.3,385.1,839.3,1760.8,3317.5,217.6,64.9,21.5
0.071000,838.4,133.7,1742.9,392.1,3291.5,398.6,840.7,1762.2,3334.9,218,64.8,21
0.073000,837.8,132.0,1755.8,394.3,3293.0,390.5,841.8,1763.8,3351.3,218.4,64.7,20.5
0.075000,835.6,127.0,1762.4,345.4,3303.0,355.4,842.7,1765.7,3366.2,218.9,64.7,20.3
0.077000,833.0,120.7,1758.3,275.1,3316.0,306.5,843.3,1767.7,3379.6,219.3,64.7,20.4
0.079000,831.3,114.2,1750.2,218.3,3328.0,270.7,843.7,1769.8,3391.3,219.8,64.7,20.7
0.081000,830.6,106.2,1742.9,177.3,3342.8,260.2,843.8,1771.8,3401.1,220.2,64.6,21
0.083000,830.7,97.7,1739.6,153.4,3365.6,281.3,843.7,1773.6,3408.9,220.7,64.6,21.3
0.085000,831.4,89.2,1740.5,139.2,3400.1,335.9,843.4,1775.2,3414.6,221.2,64.5,21.5
0.087000,832.4,82.4,1744.3,130.5,3440.9,429.5,842.9,1776.4,3418.2,221.7,64.5,21.4
0.089000,832.8,80.8,1749.1,128.3,3463.8,518.1,842.1,1777.2,3419.7,222.3,64.3,21.2
0.091000,832.3,85.2,1754.3,131.7,3456.1,545.9,841.1,1777.4,3419.2,222.8,64.1,20.9
0.093000,831.1,95.2,1760.1,138.4,3430.3,523.6,839.8,1776.9,3416.6,223.4,63.9,20.6
0.095000,829.1,111.5,1768.2,146.7,3395.2,492.0,838.1,1775.8,3412.2,223.9,63.6,20.3
0.097000,826.4,132.0,1776.4,154.7,3373.6,473.2,836,1773.8,3406.1,224.6,63.3,19.9
0.099000,823.4,151.9,1782.9,162.2,3382.4,470.1,833.4,1771,3398.6,225.2,63,19.3
0.101000,822.7,161.4,1787.2,167.0,3410.4,461.3,830.3,1767.3,3389.7,225.8,62.7,18.8
0.103000,825.5,156.2,1789.0,168.4,3427.5,424.4,826.6,1762.8,3379.9,226.5,62.4,18.3
0.105000,830.1,146.3,1787.2,168.5,3416.9,356.5,822.2,1757.3,3369.3,227.2,62.2,18.1
0.107000,833.3,142.9,1782.5,169.5,3388.8,285.5,817,1750.9,3358.4,228,62,18.2
0.109000,833.6,147.5,1777.2,175.8,3358.2,228.6,811,1743.7,3347.4,228.7,61.8,18.5
0.111000,830.0,160.9,1771.7,194.7,3328.2,188.2,804.2,1735.6,3336.6,229.5,61.6,18.9
0.113000,822.8,186.7,1764.4,228.9,3305.0,166.2,796.4,1726.7,3326.4,230.3,61.4,19.3
0.115000,811.6,233.8,1751.0,272.3,3294.0,163.2,787.7,1717.1,3317,231.1,61.3,19.7
0.117000,793.3,312.0,1727.6,299.7,3297.8,179.2,778.1,1707,3308.8,231.9,61.1,20.1
0.119000,766.3,395.8,1702.4,284.5,3312.2,200.5,767.5,1696.3,3302,232.8,61,20.7
0.121000,738.2,440.2,1685.5,240.7,3326.1,209.2,755.9,1685.2,3296.9,233.6,60.9,21.2
0.123000,725.1,425.8,1677.5,203.1,3328.6,199.0,743.6,1673.8,3293.5,234.5,60.8,21.5
0.125000,721.9,390.3,1668.1,180.8,3323.0,177.4,730.4,1662.2,3292.1,235.4,60.7,21.3
0.127000,719.5,379.0,1649.2,169.6,3319.7,155.1,716.5,1650.6,3292.8,236.2,60.7,20.4
0.129000,712.8,414.9,1622.8,158.9,3323.6,140.4,702.1,1639.1,3295.5,237.1,60.7,18.9
0.131000,698.7,505.0,1601.4,148.4,3331.0,140.7,687.3,1627.8,3300.4,238,60.7,17.2
0.133000,676.8,626.3,1591.0,144.1,3332.7,157.3,672.2,1616.9,3307.3,238.8,60.7,15.9
0.135000,649.4,758.7,1586.0,144.0,3322.0,178.2,657.1,1606.4,3316.1,239.6,60.7,15.2
0.137000,632.8,867.0,1582.9,144.5,3304.7,189.0,642.2,1596.5,3326.8,240.4,60.7,15.4
0.139000,629.9,948.3,1578.6,144.3,3292.1,200.8,627.6,1587.3,3339,241.2,60.6,16.3
0.141000,631.8,1005.5,1571.1,144.0,3287.9,234.1,613.7,1578.9,3352.5,242,60.5,17.5
0.143000,627.8,1048.3,1561.1,145.7,3293.7,303.5,600.6,1571.4,3367.1,242.7,60.4,18.7
0.145000,608.6,1105.7,1549.7,152.7,3316.0,422.2,588.6,1564.8,3382.5,243.4,60.3,19.7
0.147000,581.8,1180.3,1538.4,164.9,3367.7,555.5,577.9,1559.2,3398.4,244,60.1,20.3
0.149000,578.9,1225.2,1531.9,174.0,3426.6,569.9,568.8,1554.6,3414.4,244.6,60,20.9
0.151000,589.9,1234.5,1530.9,171.1,3447.6,483.3,561.3,1551.2,3430.2,245.1,59.8,21.4
0.153000,587.7,1227.1,1533.1,153.7,3443.5,422.1,555.8,1548.8,3445.5,245.6,59.6,21.8
0.155000,568.5,1209.7,1536.1,129.1,3444.3,399.1,552.3,1547.5,3459.9,246.1,59.4,22
0.157000,529.7,1209.1,1539.7,110.3,3466.8,385.0,551,1547.3,3473.2,246.5,59.2,22.2
0.159000,445.5,1259.0,1544.4,100.9,3496.2,321.2,551.9,1548.2,3485.2,246.8,58.9,22.1
0.161000,270.8,1316.3,1549.8,98.3,3498.9,233.7,555.1,1550,3495.5,247.1,58.6,22
0.163000,267.0,1425.2,1554.6,97.6,3488.1,181.4,560.5,1552.8,3504.1,247.3,58.3,21.9
0.165000,506.7,1340.1,1559.9,95.3,3479.8,162.5,568.3,1556.4,3510.7,247.5,58,21.9
0.167000,647.6,1124.7,1567.9,91.6,3478.8,174.0,578.1,1560.8,3515.3,247.6,57.6,22
0.169000,717.0,964.7,1580.0,88.6,3490.7,220.6,590,1565.9,3517.9,247.6,57.3,22.2
0.171000,747.0,912.4,1595.2,89.7,3540.8,302.0,603.8,1571.6,3518.4,247.6,56.9,22.4
0.173000,760.0,935.4,1610.1,93.6,3618.4,309.6,619.2,1577.8,3517,247.6,56.6,22.5
0.175000,776.5,935.2,1624.0,93.7,3631.3,287.2,636,1584.3,3513.8,247.5,56.2,22.4
0.177000,789.7,887.3,1633.8,89.3,3583.2,268.3,654,1591.1,3508.9,247.4,55.8,22.2
0.179000,787.0,866.5,1640.2,88.2,3535.1,207.6,672.7,1598.1,3502.5,247.2,55.4,21.9
0.181000,765.7,911.9,1644.2,96.0,3512.8,154.1,692,1605.1,3494.9,247,55,21.5
0.183000,734.6,993.5,1644.3,111.1,3504.8,132.8,711.4,1612.1,3486.3,246.7,54.5,20.9
0.185000,716.6,1055.7,1638.2,129.2,3496.5,138.2,730.6,1618.8,3477.1,246.5,54,20.2
0.187000,726.0,1098.0,1625.6,145.7,3478.7,160.2,749.4,1625.3,3467.6,246.2,53.4,22.7
0.189000,746.9,1146.0,1608.7,153.5,3443.0,176.0,767.2,1631.3,3458,245.9,52.8,28.4
0.191000,757.9,1215.4,1596.9,138.8,3402.4,152.3,783.8,1636.9,3448.7,245.6,52,32.3
0.193000,729.9,1360.6,1599.0,111.0,3385.1,116.8,798.9,1642,3439.9,245.2,51.2,29.5
0.195000,626.0,1639.2,1611.5,85.0,3381.7,97.7,812.2,1646.3,3432,244.9,50.4,15
0.197000,439.3,2021.8,1627.3,69.0,3383.6,95.7,823.4,1650,3425.1,244.5,49.4,-18.1
0.199000,392.8,2400.0,1641.9,63.7,3390.4,102.5,832.4,1652.9,3419.6,244.2,48.4,-66.2
0.201000,789.3,2434.8,1653.2,71.4,3404.7,107.9,838.9,1655.1,3415.5,243.9,47.2,-119.4
0.203000,1144.3,2100.1,1658.3,94.4,3422.0,106.8,842.9,1656.3,3412.9,243.5,45.9,-167.4
0.205000,1375.3,1716.6,1650.1,136.3,3439.0,112.0,844.2,1656.8,3412.1,243.2,44.6,-200
