time,f1,b1,f2,b2,f3,b3,f1p,f2p,f3p,f0,intensity,harmonicity
0.025000,860.2,90.5,1663.9,152.8,2799.9,742.9,867.6,1675.9,2833.7,155.3,69.7,9.4
0.027000,870.6,84.4,1673.1,138.4,2805.1,765.7,869.1,1675.8,2833.4,155,69.7,9.9
0.029000,878.9,76.5,1680.5,121.4,2837.4,674.8,871.6,1675.5,2833,154.7,69.7,10.2
0.031000,884.3,71.8,1684.9,114.2,2847.8,566.6,875.1,1675.1,2832.4,154.3,69.6,10.2
0.033000,887.5,74.0,1685.4,119.0,2842.1,520.3,879.5,1674.6,2831.7,154,69.5,10
0.035000,890.7,84.2,1681.7,133.7,2834.2,545.6,884.7,1673.9,2830.8,153.6,69.3,9.4
0.037000,895.6,96.7,1676.0,146.9,2833.1,601.0,890.6,1673.2,2829.9,153.2,68.9,8.3
0.039000,902.9,105.7,1672.4,149.7,2849.8,612.1,897.2,1672.3,2828.9,152.8,68.5,6.7
0.041000,912.0,113.3,1671.6,148.8,2883.7,550.2,904.3,1671.3,2828,152.4,68.1,4.9
0.043000,923.9,126.2,1669.7,157.4,2904.7,459.6,911.8,1670.2,2827,152,67.9,3.3
0.045000,940.1,136.5,1661.9,170.0,2890.8,379.4,919.6,1669,2826.2,151.6,67.9,2.3
0.047000,951.2,126.8,1652.1,160.9,2857.0,320.2,927.6,1667.6,2825.4,151.2,68.1,1.7
0.049000,954.3,111.0,1646.7,140.6,2831.5,278.6,935.6,1666.1,2824.9,150.8,68.4,1.5
0.051000,952.7,103.4,1645.7,130.0,2830.6,249.7,943.4,1664.5,2824.5,150.4,68.8,1.5
0.053000,949.4,103.7,1645.8,131.6,2844.5,224.5,951,1662.7,2824.4,150.1,69,1.8
0.055000,946.9,105.0,1644.4,139.4,2853.8,216.4,958.3,1660.9,2824.5,149.7,69.1,2.4
0.057000,947.6,100.6,1644.3,142.2,2846.2,235.9,965.1,1658.9,2825,149.3,69,3.5
0.059000,950.7,91.1,1651.3,134.1,2817.9,272.5,971.3,1656.8,2825.9,149,69,5.1
0.061000,953.8,82.8,1662.6,122.5,2774.0,314.3,976.8,1654.7,2827.1,148.6,68.9,6.8
0.063000,956.1,78.8,1669.8,115.5,2728.9,352.5,981.5,1652.4,2828.8,148.3,68.8,8.5
0.065000,958.7,77.6,1669.9,114.1,2705.5,367.1,985.4,1650.1,2830.9,147.9,68.6,9.7
0.067000,963.1,79.1,1665.7,119.8,2714.7,350.7,988.3,1647.8,2833.4,147.6,68.4,10.6
0.069000,968.7,83.8,1659.0,135.2,2738.3,323.5,990.3,1645.4,2836.4,147.3,68.1,11.4
0.071000,973.0,89.3,1650.5,153.8,2759.4,300.3,991.4,1643,2839.9,147,67.8,12
0.073000,974.6,93.8,1639.4,162.1,2771.8,287.2,991.4,1640.6,2843.8,146.7,67.3,12.2
0.075000,973.4,101.5,1626.6,159.7,2783.7,289.8,990.4,1638.3,2848.1,146.5,66.8,12
0.077000,970.4,113.2,1619.5,154.6,2811.7,297.3,988.5,1636,2852.9,146.2,66.2,11.3
0.079000,968.0,120.9,1623.1,148.0,2857.9,275.9,985.7,1633.7,2858.1,146,65.5,9.9
0.081000,968.9,121.2,1636.5,141.2,2898.5,230.9,982,1631.6,2863.6,145.7,64.8,8.3
0.083000,973.9,118.8,1654.7,135.0,2923.8,196.2,977.5,1629.7,2869.5,145.5,64.1,6.8
0.085000,981.7,116.7,1671.1,125.7,2941.4,183.6,972.3,1627.8,2875.7,145.3,63.5,5.7
0.087000,986.3,117.4,1680.2,114.0,2959.1,190.6,966.6,1626.2,2882.1,145.1,63.1,5
0.089000,981.2,123.8,1682.9,105.6,2979.4,209.6,960.3,1624.8,2888.7,145,63.1,4.3
0.091000,965.1,130.3,1677.7,110.0,2991.0,226.2,953.6,1623.6,2895.5,144.8,63.3,3.9
0.093000,951.4,126.1,1661.9,132.6,2985.4,227.8,946.7,1622.6,2902.4,144.7,63.6,3.7
0.095000,946.6,113.9,1636.4,161.9,2971.3,214.9,939.7,1622,2909.3,144.6,64,3.8
0.097000,946.2,102.0,1613.9,175.7,2960.0,192.0,932.6,1621.6,2916.2,144.5,64.3,4.2
0.099000,946.2,94.3,1601.2,175.7,2955.7,168.3,925.7,1621.6,2923,144.4,64.4,4.9
0.101000,943.8,93.6,1595.8,171.3,2955.3,152.6,919.1,1621.8,2929.7,144.4,64.3,5.8
0.103000,936.8,100.2,1590.6,169.9,2954.2,148.4,912.9,1622.4,2936.3,144.3,64,6.8
0.105000,925.8,111.5,1580.6,178.5,2952.9,152.0,907.2,1623.4,2942.6,144.3,63.7,7.8
0.107000,917.9,120.6,1566.9,195.8,2954.4,148.5,902.2,1624.7,2948.7,144.3,63.4,9
0.109000,916.2,124.6,1556.0,208.2,2954.5,134.1,897.9,1626.3,2954.4,144.3,63.1,10.3
0.111000,919.7,122.7,1559.5,203.2,2948.8,119.9,894.4,1628.3,2959.9,144.4,62.9,11.7
0.113000,924.5,121.0,1575.9,191.4,2940.0,110.6,891.9,1630.6,2965,144.4,62.7,12.8
0.115000,925.0,128.1,1594.7,191.2,2933.1,105.5,890.4,1633.2,2969.6,144.5,62.5,13.5
0.117000,917.5,145.7,1605.6,213.7,2932.1,105.4,889.9,1636.2,2973.9,144.6,62.3,13.8
0.119000,905.8,168.2,1608.2,261.3,2936.9,109.8,890.4,1639.4,2977.8,144.7,62.1,13.6
0.121000,896.9,189.7,1610.2,322.3,2944.8,117.5,892.1,1642.8,2981.3,144.8,61.8,13.3
0.123000,891.5,205.8,1625.6,358.2,2951.4,126.9,894.9,1646.5,2984.3,144.9,61.6,12.8
0.125000,885.2,210.6,1657.1,321.3,2953.7,131.5,898.8,1650.4,2986.9,145,61.4,12.4
0.127000,880.3,203.0,1684.5,238.7,2956.6,127.2,903.7,1654.5,2989.2,145.1,61.3,11.8
0.129000,881.2,186.5,1701.1,166.4,2968.8,123.5,909.7,1658.6,2991.1,145.2,61.3,11
0.131000,887.0,164.7,1708.6,124.6,2992.5,131.0,916.7,1662.9,2992.6,145.3,61.3,10.2
0.133000,893.7,142.4,1710.3,108.7,3020.3,153.9,924.6,1667.2,2993.9,145.3,61.4,9.5
0.135000,897.4,124.1,1709.5,115.4,3038.5,192.7,933.2,1671.6,2994.9,145.4,61.5,9.1
0.137000,897.1,114.8,1709.6,152.5,3028.9,225.6,942.7,1675.9,2995.6,145.4,61.5,9.1
0.139000,899.5,113.8,1716.0,237.9,2994.8,225.0,952.7,1680.1,2996.2,145.5,61.5,9.3
0.141000,913.8,118.0,1734.0,355.2,2961.8,203.1,963.3,1684.2,2996.7,145.5,61.4,9.7
0.143000,942.1,123.1,1753.5,409.5,2946.1,182.8,974.3,1688.2,2997.1,145.4,61.2,10
0.145000,976.0,127.3,1760.8,399.4,2947.1,173.6,985.6,1691.9,2997.5,145.4,60.9,10.2
0.147000,998.4,134.3,1751.0,370.8,2956.9,179.7,997.1,1695.4,2997.9,145.3,60.6,10
0.149000,1008.3,152.1,1728.3,316.6,2970.2,204.5,1008.6,1698.7,2998.4,145.2,60.3,9.7
0.151000,1010.5,184.9,1707.2,237.8,2987.0,253.8,1020.1,1701.6,2999,145,59.9,9.3
0.153000,1015.3,234.1,1693.6,167.3,3005.9,311.1,1031.4,1704.2,2999.8,144.9,59.7,8.9
0.155000,1036.9,297.8,1683.3,123.9,3016.0,333.4,1042.4,1706.5,3000.9,144.7,59.5,8.7
0.157000,1074.9,356.8,1677.1,107.4,3018.1,326.6,1053.1,1708.3,3002.2,144.5,59.2,8.7
0.159000,1112.4,402.7,1674.6,105.0,3023.4,326.6,1063.2,1709.8,3003.8,144.2,59,8.9
0.161000,1133.6,438.3,1674.4,109.9,3036.2,341.6,1072.9,1710.9,3005.8,143.9,58.8,9.1
0.163000,1137.6,462.5,1675.5,119.5,3058.1,349.8,1081.9,1711.5,3008.1,143.6,58.7,9.2
0.165000,1128.8,456.2,1676.8,132.1,3077.6,310.6,1090.2,1711.7,3010.8,143.3,58.5,9.1
0.167000,1113.2,412.9,1678.6,144.8,3073.0,246.2,1097.8,1711.4,3013.9,143,58.3,8.8
0.169000,1097.5,352.1,1683.2,155.8,3049.3,192.9,1104.6,1710.8,3017.5,142.7,58,8.3
0.171000,1087.8,301.6,1688.4,160.8,3022.5,156.7,1110.7,1709.7,3021.4,142.4,57.8,7.8
0.173000,1087.4,278.3,1690.3,155.0,3006.1,135.0,1115.9,1708.2,3025.8,142,57.4,7.2
0.175000,1098.8,286.1,1692.7,140.6,3005.0,126.6,1120.4,1706.4,3030.6,141.7,57,6.8
0.177000,1121.4,323.1,1699.7,127.1,3013.2,129.8,1124.1,1704.1,3035.9,141.4,56.8,6.6
0.179000,1148.0,369.6,1704.2,117.1,3017.9,138.3,1127,1701.5,3041.5,141.1,56.6,6.4
0.181000,1163.6,371.4,1699.9,111.0,3014.9,147.4,1129.2,1698.6,3047.4,140.8,56.5,6.3
0.183000,1161.7,321.0,1689.2,109.8,3014.9,157.3,1130.8,1695.4,3053.8,140.5,56.4,6.2
0.185000,1150.0,267.3,1676.5,114.4,3031.1,168.5,1131.8,1691.9,3060.4,140.2,56.2,6.2
0.187000,1137.8,236.7,1667.9,122.8,3059.4,174.6,1132.2,1688.2,3067.3,140,56.1,9.7
0.189000,1127.2,228.1,1665.2,136.0,3087.7,177.1,1132.1,1684.3,3074.4,139.8,55.7,16.5
0.191000,1119.4,243.2,1667.0,163.2,3109.6,180.8,1131.7,1680.3,3081.7,139.6,55.4,21.8
0.193000,1117.7,278.0,1670.7,220.0,3124.3,186.7,1130.9,1676.1,3089.1,139.5,55.1,20.4
0.195000,1128.0,311.8,1675.8,323.5,3133.3,194.9,1129.8,1671.8,3096.7,139.3,54.8,7.3
0.197000,1145.2,317.6,1684.0,435.8,3137.2,207.9,1128.6,1667.5,3104.3,139.2,54.6,-24.1
0.199000,1155.0,321.2,1685.4,460.4,3134.8,226.7,1127.2,1663.1,3112,139.2,54.3,-70.6
0.201000,1153.4,357.2,1674.9,369.7,3129.5,235.0,1125.8,1658.8,3119.6,139.1,53.9,-122
0.203000,1144.6,428.9,1670.3,270.3,3137.1,206.0,1124.5,1654.5,3127.1,139.1,53.6,-168.5
0.205000,1125.1,548.1,1670.8,213.8,3153.7,164.3,1123.2,1650.2,3134.6,139.1,53.2,-200
0.207000,1090.0,660.1,1672.6,191.2,3164.5,138.4,1122,1646.1,3141.9,139.1,52.5,-213.3
0.209000,1066.3,687.5,1676.0,190.7,3170.1,119.8,1121.1,1642.1,3149,139.2,52,-214.9
0.211000,1078.4,616.0,1679.9,204.6,3172.8,103.9,1120.3,1638.2,3155.9,139.3,51.6,-210
0.213000,1103.7,501.6,1676.7,207.2,3172.8,91.4,1119.8,1634.5,3162.6,139.3,51.2,-203.3
0.215000,1118.8,412.7,1654.6,174.3,3169.0,82.8,1119.5,1630.9,3169,139.4,50.9,-200
0.217000,1119.7,361.6,1625.4,132.1,3162.1,75.3,1119.6,1627.5,3175.2,139.5,50.5,-200
0.219000,1112.3,319.4,1599.7,102.7,3154.7,66.2,1119.9,1624.4,3181,139.6,49.9,-200
0.221000,1102.7,279.1,1580.1,89.8,3149.2,59.9,1120.4,1621.4,3186.5,139.7,49.4,-200
0.223000,1095.1,242.6,1569.7,90.8,3145.4,63.4,1121.3,1618.6,3191.7,139.8,49,-200
0.225000,1092.3,210.6,1574.4,99.7,3142.6,84.4,1122.4,1616.1,3196.5,139.9,48.2,-200
0.227000,1094.8,189.3,1594.0,105.8,3141.4,125.6,1123.6,1613.7,3201,140,47.3,-200
0.229000,1100.6,179.1,1621.2,102.6,3144.4,167.6,1125.1,1611.5,3205.1,140.1,46.6,-200
0.231000,1104.2,181.5,1647.0,87.9,3155.2,174.6,1126.7,1609.6,3208.9,140.2,45.8,-200
0.233000,1100.9,206.9,1661.0,71.4,3169.8,162.4,1128.4,1607.8,3212.4,140.3,45.1,-200
0.235000,1098.4,260.9,1660.4,65.0,3180.6,158.9,1130.2,1606.3,3215.5,140.4,44.4,-200
0.237000,1118.7,317.8,1646.7,73.3,3182.0,164.4,1131.9,1604.9,3218.3,0,43.8,-200
0.239000,1164.2,359.7,1620.8,92.9,3176.7,166.6,1133.6,1603.7,3220.8,0,43.3,-200
0.241000,1212.9,392.8,1589.0,109.1,3170.1,164.2,1135.3,1602.6,3223,0,42.9,-200
0.243000,1254.6,428.9,1565.9,113.7,3172.9,168.4,1136.8,1601.8,3224.8,0,42.3,-200
0.245000,1286.7,487.3,1557.6,115.0,3200.2,191.3,1138.2,1601,3226.4,0,41.5,-200
0.247000,1276.3,563.9,1563.4,111.4,3251.9,220.0,1139.3,1600.4,3227.7,0,41.1,-200
0.249000,1176.1,594.9,1579.8,100.2,3305.1,230.4,1140.3,1600,3228.6,0,40.5,-200
0.251000,1056.1,485.9,1596.3,95.6,3336.6,224.7,1140.9,1599.7,3229.3,0,39.3,-200
0.253000,1021.9,384.7,1601.8,108.5,3347.5,228.3,1141.4,1599.5,3229.7,0,38.4,-200
0.255000,1030.8,358.1,1592.7,124.9,3352.2,256.1,1141.5,1599.4,3229.9,0,38,-200
