time,f1,b1,f2,b2,f3,b3,f1p,f2p,f3p,f0,intensity,harmonicity
0.025000,814.9,120.8,1782.8,449.2,3158.7,209.4,876.9,1764.1,3207.5,208.8,70.6,6.7
0.027000,824.9,131.9,1773.1,416.0,3150.7,160.8,877,1763.9,3206.9,208.8,70.3,7.1
0.029000,838.5,150.0,1753.9,403.7,3145.7,128.7,877.2,1763.7,3205.7,208.7,70.1,7.9
0.031000,852.3,161.0,1727.6,377.0,3147.7,117.8,877.5,1763.3,3204.2,208.7,70,8.9
0.033000,861.0,150.6,1706.9,327.7,3158.7,123.2,877.8,1762.8,3202.3,208.7,70,9.8
0.035000,864.8,134.9,1700.0,292.4,3177.1,140.0,878.2,1762.2,3200,208.7,69.9,10.4
0.037000,867.6,127.9,1705.0,286.5,3200.2,164.6,878.7,1761.6,3197.3,208.7,69.9,10.4
0.039000,869.8,131.9,1721.9,313.3,3222.7,197.2,879.2,1760.8,3194.3,208.8,69.8,10.1
0.041000,870.5,142.0,1749.4,364.8,3239.1,236.9,879.7,1759.9,3191.1,208.8,69.6,9.6
0.043000,869.7,149.8,1782.7,426.8,3240.9,269.8,880.2,1759,3187.7,208.9,69.4,9.4
0.045000,869.5,149.8,1807.2,467.9,3224.9,271.2,880.8,1757.9,3184.1,208.9,69.2,9.7
0.047000,871.4,145.2,1815.6,459.1,3203.5,247.6,881.3,1756.8,3180.3,209,69.1,10.6
0.049000,875.3,139.6,1807.2,393.1,3190.8,225.3,881.8,1755.6,3176.5,209.1,69.1,12.1
0.051000,880.8,132.8,1793.1,316.3,3187.9,219.6,882.3,1754.4,3172.7,209.3,69,13.8
0.053000,888.2,125.4,1782.7,264.7,3187.3,224.1,882.7,1753.1,3168.9,209.4,69.1,15.3
0.055000,896.4,122.3,1779.9,256.8,3181.1,224.7,883,1751.7,3165.3,209.6,69.1,16.5
0.057000,905.9,122.6,1781.6,288.5,3170.5,215.6,883.3,1750.3,3161.8,209.8,69.1,17.3
0.059000,916.5,121.9,1781.6,342.8,3164.6,205.4,883.4,1748.9,3158.4,210,69.2,17.8
0.061000,925.5,119.0,1774.0,381.2,3167.8,201.8,883.5,1747.4,3155.4,210.3,69.2,18.1
0.063000,931.1,114.1,1763.9,372.2,3179.6,206.8,883.5,1745.9,3152.6,210.5,69.1,18.4
0.065000,932.3,108.2,1763.5,333.9,3189.9,218.2,883.4,1744.4,3150.2,210.8,69.1,18.6
0.067000,930.2,105.2,1771.6,306.6,3182.3,225.6,883.2,1742.8,3148.2,211.1,69,18.7
0.069000,926.9,107.4,1775.8,307.4,3153.4,204.0,882.8,1741.3,3146.5,211.5,68.9,18.7
0.071000,925.1,111.4,1768.3,330.1,3131.1,156.9,882.4,1739.7,3145.4,211.8,68.9,18.7
0.073000,925.9,117.7,1751.1,384.5,3128.3,113.6,881.9,1738.2,3144.7,212.2,68.8,18.6
0.075000,927.9,129.0,1727.6,482.3,3135.9,90.2,881.2,1736.6,3144.5,212.6,68.7,18.5
0.077000,930.3,148.6,1695.0,629.8,3145.3,82.4,880.6,1735.1,3144.8,213.1,68.6,18.4
0.079000,932.1,172.2,1668.4,752.0,3153.1,87.5,879.8,1733.6,3145.6,213.5,68.5,18.3
0.081000,930.5,192.6,1675.2,744.5,3159.6,105.8,879,1732.1,3146.9,214,68.4,18.1
0.083000,924.0,217.6,1698.9,625.2,3164.8,143.4,878.2,1730.6,3148.8,214.5,68.2,17.9
0.085000,913.5,260.2,1703.6,505.1,3166.0,200.1,877.4,1729.1,3151.1,215,68,17.6
0.087000,895.2,331.0,1686.1,421.3,3164.7,273.2,876.7,1727.7,3153.9,215.6,67.9,17.3
0.089000,864.9,406.2,1662.2,356.3,3164.0,340.3,875.9,1726.3,3157.2,216.1,67.8,16.9
0.091000,830.9,450.1,1650.0,292.6,3160.2,373.3,875.3,1724.9,3160.9,216.7,67.7,16.4
0.093000,807.0,460.1,1653.2,226.1,3145.2,353.2,874.7,1723.6,3165,217.3,67.7,16
0.095000,800.3,452.9,1666.1,170.0,3125.4,304.6,874.3,1722.3,3169.5,217.9,67.6,15.7
0.097000,803.3,447.8,1681.0,134.4,3115.7,280.7,874.1,1721.1,3174.3,218.6,67.5,15.4
0.099000,811.6,448.0,1698.0,114.9,3120.8,295.3,874,1719.9,3179.3,219.2,67.4,15.1
0.101000,823.5,443.4,1715.8,107.2,3143.7,333.3,874.2,1718.7,3184.6,219.9,67.3,14.9
0.103000,838.3,422.2,1733.9,105.6,3184.7,360.8,874.7,1717.6,3190,220.6,67.2,14.8
0.105000,851.6,393.9,1747.6,110.4,3225.0,358.6,875.4,1716.5,3195.6,221.2,67.1,14.8
0.107000,863.0,378.1,1753.9,123.5,3251.3,354.9,876.5,1715.5,3201.3,221.9,67,15.2
0.109000,873.6,379.1,1749.4,137.0,3256.3,356.4,877.9,1714.5,3206.9,222.6,66.9,15.8
0.111000,885.0,379.0,1739.4,138.7,3247.7,332.5,879.6,1713.5,3212.6,223.3,66.7,16.5
0.113000,898.5,366.2,1733.9,133.0,3238.5,279.3,881.8,1712.7,3218.1,224.1,66.6,17.1
0.115000,908.2,349.1,1737.3,131.4,3232.2,230.2,884.3,1711.8,3223.5,224.8,66.4,17.3
0.117000,908.0,346.8,1748.0,141.7,3225.7,202.2,887.3,1711,3228.8,225.5,66.2,17.1
0.119000,895.9,381.1,1761.6,170.9,3219.4,199.6,890.7,1710.3,3233.8,226.3,65.9,16.6
0.121000,878.0,454.1,1773.1,220.4,3213.1,214.0,894.5,1709.6,3238.6,227.1,65.6,16
0.123000,862.0,553.6,1781.3,284.2,3204.2,238.7,898.8,1709,3243.1,227.9,65.3,15.3
0.125000,853.4,646.4,1786.6,333.9,3191.7,267.6,903.5,1708.4,3247.2,228.7,64.9,14.9
0.127000,846.6,720.0,1787.9,355.2,3178.1,296.0,908.7,1707.9,3251.1,229.5,64.5,14.8
0.129000,835.8,813.1,1776.2,362.3,3166.4,328.6,914.2,1707.4,3254.5,230.4,64.1,14.8
0.131000,821.6,960.4,1743.3,353.7,3167.8,364.6,920.2,1707,3257.6,231.3,63.7,14.9
0.133000,813.2,1117.6,1705.4,309.9,3197.9,382.9,926.6,1706.7,3260.3,232.2,63.3,14.9
0.135000,846.4,1133.3,1689.7,257.8,3254.3,352.6,933.4,1706.4,3262.6,233.2,62.9,14.8
0.137000,907.0,1024.8,1689.0,229.8,3306.8,296.5,940.5,1706.2,3264.5,234.3,62.4,14.4
0.139000,976.5,880.8,1690.9,230.0,3342.1,248.4,948,1706,3266.1,235.3,61.9,13.8
0.141000,1042.8,781.7,1690.3,252.2,3354.6,222.8,955.7,1705.9,3267.3,236.5,61.3,13.1
0.143000,1104.3,775.1,1685.2,284.3,3350.3,214.5,963.6,1705.8,3268.2,237.6,60.8,12.5
0.145000,1148.8,894.9,1672.6,307.5,3338.2,222.1,971.8,1705.9,3268.7,238.9,60.1,12
0.147000,1157.2,1180.1,1654.6,296.2,3323.4,245.6,980.1,1705.9,3269,240.1,59.5,11.8
0.149000,1092.2,1598.7,1646.6,250.6,3308.1,284.6,988.6,1706.1,3269.1,241.5,58.7,11.7
0.151000,1008.5,1945.1,1645.8,209.0,3294.0,339.6,997.1,1706.3,3269,242.9,58,11.6
0.153000,1047.9,1964.0,1644.2,190.3,3280.9,418.8,1005.6,1706.6,3268.7,244.3,57.1,11.4
0.155000,1124.3,1726.0,1643.8,190.8,3265.0,478.9,1014.1,1706.9,3268.3,245.8,56.3,10.8
0.157000,1107.2,1515.8,1646.4,189.8,3256.1,444.0,1022.5,1707.3,3267.9,247.3,55.2,12.9
0.159000,983.2,1353.4,1647.8,182.4,3263.7,355.2,1030.8,1707.7,3267.5,248.8,54.2,17.9
0.161000,873.9,1004.6,1646.4,179.0,3272.1,290.3,1038.9,1708.2,3267.1,250.4,53.1,21.2
0.163000,890.2,713.0,1646.2,192.5,3270.9,254.3,1046.7,1708.8,3266.9,251.9,52,18.1
0.165000,940.8,509.1,1654.4,226.7,3260.7,243.0,1054.3,1709.3,3266.7,253.5,50.9,4
0.167000,989.7,364.6,1677.9,256.6,3247.6,247.4,1061.5,1710,3266.8,255,50.1,-27.4
0.169000,1030.1,272.0,1715.9,266.6,3237.6,254.6,1068.4,1710.6,3267.2,256.6,49.2,-73.2
0.171000,1062.4,224.4,1756.6,265.2,3235.4,255.7,1074.8,1711.3,3267.9,258.1,49,-123.6
0.173000,1090.3,199.3,1790.1,255.3,3237.8,255.8,1080.8,1712,3268.9,259.5,48.4,-169.1
0.175000,1112.5,195.3,1804.9,241.3,3244.7,261.1,1086.3,1712.7,3270.3,261,48.6,-200
0.177000,1130.3,216.1,1804.1,231.0,3261.5,266.7,1091.3,1713.4,3272.1,262.3,48,-213.1
0.179000,1151.4,265.0,1794.8,221.8,3287.1,253.3,1095.7,1714.2,3274.4,263.6,48.2,-214.7
0.181000,1176.7,329.4,1780.8,211.5,3305.2,220.6,1099.6,1714.9,3277.1,0,47.7,-209.8
0.183000,1197.7,388.1,1764.3,196.1,3311.5,190.9,1102.9,1715.5,3280.4,0,47.6,-203.3
0.185000,1197.0,402.2,1750.7,172.7,3309.3,179.6,1105.6,1716.2,3284.1,0,47.1,-200
0.187000,1179.6,368.4,1740.8,151.2,3303.4,187.6,1107.7,1716.8,3288.4,0,46.9,-200
0.189000,1161.9,334.5,1727.9,144.8,3298.2,211.8,1109.2,1717.3,3293.2,0,46.8,-200
0.191000,1149.4,346.8,1709.5,161.7,3296.4,240.8,1110.1,1717.8,3298.5,0,46.8,-200
0.193000,1136.5,415.2,1687.2,206.4,3295.3,269.8,1110.4,1718.2,3304.4,0,47.1,-200
0.195000,1123.5,501.9,1668.9,273.1,3294.2,303.6,1110.1,1718.5,3310.7,0,47.3,-200
0.197000,1111.2,522.5,1665.0,319.9,3295.7,330.6,1109.3,1718.8,3317.5,0,47.6,-200
0.199000,1097.1,466.5,1674.6,302.5,3303.8,332.3,1107.9,1718.9,3324.8,0,47.7,-200
0.201000,1085.8,387.7,1688.2,248.6,3318.4,316.3,1106.1,1718.8,3332.5,0,47.5,-200
0.203000,1073.4,313.2,1704.1,195.3,3333.6,293.1,1103.8,1718.7,3340.5,0,47.3,-200
0.205000,1054.5,260.8,1720.1,159.5,3343.5,261.8,1101,1718.4,3348.9,0,46.8,-200
0.207000,1027.8,233.7,1733.8,144.5,3349.2,230.6,1097.8,1717.9,3357.6,0,46.4,-200
0.209000,992.6,224.3,1744.7,145.2,3355.9,211.9,1094.3,1717.3,3366.5,0,46.1,-200
0.211000,958.2,225.2,1748.9,144.0,3363.6,210.8,1090.4,1716.5,3375.7,0,46.1,-200
0.213000,933.1,239.0,1745.0,123.9,3370.1,219.0,1086.2,1715.6,3384.9,0,46.1,-200
0.215000,927.9,286.9,1737.4,101.4,3376.5,231.8,1081.9,1714.4,3394.3,0,46.2,-200
0.217000,948.6,393.3,1729.3,91.9,3387.3,251.0,1077.3,1713.1,3403.6,0,46.1,-200
0.219000,1005.2,576.4,1720.4,94.2,3406.4,274.4,1072.6,1711.6,3413,0,46,-200
0.221000,1089.8,737.9,1712.7,102.8,3427.9,289.3,1067.8,1709.9,3422.2,0,45.7,-200
0.223000,1158.6,749.7,1707.6,112.3,3446.9,291.6,1062.9,1708,3431.3,0,45.4,-200
0.225000,1161.1,669.1,1699.9,115.3,3464.5,290.5,1058,1705.9,3440.2,0,45.1,-200
0.227000,1115.8,585.8,1682.7,107.5,3477.9,304.7,1053.2,1703.6,3448.9,0,44.9,-200
0.229000,1053.5,488.6,1658.5,94.0,3478.2,342.3,1048.4,1701.1,3457.3,0,44.8,-200
0.231000,1009.3,406.7,1637.7,87.5,3458.0,379.0,1043.7,1698.5,3465.4,0,44.6,-200
0.233000,990.7,365.8,1626.8,97.5,3425.8,402.3,1039.2,1695.6,3473.1,0,44.3,-200
0.235000,997.4,361.5,1639.3,131.2,3405.6,441.4,1034.9,1692.6,3480.4,0,43.9,-200
0.237000,1012.5,350.4,1680.4,174.5,3426.1,496.0,1030.7,1689.5,3487.2,0,43.3,-200
0.239000,1020.3,315.6,1737.7,202.6,3519.6,445.8,1026.8,1686.2,3493.6,0,42.6,-200
0.241000,1020.4,276.0,1780.8,208.5,3546.1,281.4,1023.1,1682.7,3499.5,0,42,-200
0.243000,1017.8,251.1,1790.2,204.6,3548.5,230.7,1019.7,1679.2,3504.9,0,41.5,-200
0.245000,1019.9,277.9,1745.2,196.9,3549.3,242.1,1016.6,1675.5,3509.8,0,41.3,-200
0.247000,1028.6,370.8,1671.0,168.4,3546.6,270.6,1013.7,1671.7,3514.3,0,41.4,-200
0.249000,1049.1,520.0,1618.2,130.2,3554.4,306.9,1011.2,1667.9,3518.2,0,41.7,-200
0.251000,1103.6,704.9,1597.3,115.5,3586.3,353.3,1008.9,1664,3521.6,0,42.2,-200
0.253000,1202.3,877.2,1591.7,123.2,3620.1,434.8,1006.9,1660.1,3524.5,0,42.5,-200
0.255000,1269.0,889.9,1599.5,147.3,3598.5,677.4,1005.2,1656.2,3526.9,0,42.7,-200
0.257000,1232.2,774.3,1622.1,169.1,3487.0,711.1,1003.8,1652.3,3529,0,42.8,-200
0.259000,1136.3,610.9,1644.5,161.5,3457.7,643.1,1002.6,1648.4,3530.6,0,42.8,-200
0.261000,1050.9,448.8,1648.5,133.3,3469.7,606.4,1001.7,1644.6,3531.8,0,42.7,-200
0.263000,988.5,308.7,1642.1,106.1,3506.6,582.3,1001,1640.8,3532.6,0,42.4,-200
0.265000,948.5,216.7,1637.0,93.6,3538.3,515.2,1000.4,1637.1,3533.2,0,42.1,-200
0.267000,925.5,171.6,1638.0,97.2,3540.5,427.5,1000.1,1633.6,3533.4,0,41.7,-200
0.269000,916.1,160.9,1644.0,112.6,3533.8,368.2,1000,1630.2,3533.4,0,41.4,-200
0.271000,922.3,179.2,1646.0,127.8,3531.8,362.6,999.9,1626.9,3533.2,0,41.1,-200
0.273000,939.8,211.3,1636.7,132.5,3529.9,419.0,1000,1623.9,3532.9,0,40.8,-200
0.275000,948.7,218.4,1625.9,124.7,3510.9,517.6,1000.2,1621,3532.4,0,40.4,-200
0.277000,944.5,205.3,1628.8,116.4,3478.2,555.1,1000.4,1618.4,3531.8,0,40.2,-200
0.279000,942.9,210.6,1647.0,112.5,3462.1,539.2,1000.7,1615.9,3531.2,0,39.8,-200
0.281000,950.7,252.6,1658.1,104.5,3462.8,559.0,1001,1613.8,3530.6,0,39.5,-200
0.283000,968.6,337.0,1647.7,92.4,3493.6,653.1,1001.3,1611.8,3530,0,39.3,-200
0.285000,986.5,430.1,1625.2,81.7,3628.1,695.3,1001.6,1610.2,3529.4,0,39.2,-200
0.287000,995.5,493.7,1604.2,75.0,3600.2,1381.4,1001.8,1608.8,3528.9,0,39,-200
0.289000,999.8,534.7,1587.7,74.3,3629.0,675.3,1002.1,1607.8,3528.5,0,38.8,-200
0.291000,1001.6,535.6,1578.7,80.7,3539.7,631.3,1002.2,1607,3528.2,0,38.5,-200
0.293000,997.6,449.8,1579.8,92.4,3489.4,500.8,1002.3,1606.5,3528,0,38.2,-200
0.295000,988.0,308.4,1593.7,96.1,3466.3,407.7,1002.4,1606.4,3527.9,0,37.9,-200
