time,f1,b1,f2,b2,f3,b3,f1p,f2p,f3p,f0,intensity,harmonicity
0.025000,811.8,117.4,1660.3,290.7,2941.9,302.7,799.5,1679.7,3007.2,193.1,69.5,14.5
0.027000,820.1,103.0,1675.0,241.1,2945.9,296.5,801.4,1680.4,3007.4,193.2,69.4,14.9
0.029000,826.2,93.4,1685.3,195.5,2956.3,293.0,804.5,1681.5,3007.7,193.4,69.3,15.4
0.031000,831.1,92.2,1689.7,170.3,2980.9,291.9,808.7,1682.9,3008.2,193.6,69.2,15.9
0.033000,834.4,98.4,1688.5,168.4,3013.9,298.4,813.9,1684.8,3008.7,193.8,69.2,16.2
0.035000,835.8,110.6,1683.5,185.7,3043.6,302.8,819.9,1686.9,3009.4,194.1,69.1,16.3
0.037000,833.1,130.1,1678.4,228.2,3052.7,294.0,826.7,1689.4,3010.3,194.3,69.1,16
0.039000,826.6,152.0,1674.4,290.4,3042.8,276.2,834,1692.1,3011.3,194.6,69.1,15.4
0.041000,821.7,167.7,1672.5,350.9,3029.7,256.5,841.6,1695.1,3012.4,194.8,69,14.7
0.043000,824.4,174.0,1678.6,384.6,3025.2,242.9,849.4,1698.2,3013.7,195.1,68.9,14.1
0.045000,835.1,173.2,1695.9,393.9,3030.0,238.1,857.1,1701.4,3015.2,195.5,68.8,13.6
0.047000,848.5,165.6,1718.8,378.5,3041.3,243.6,864.5,1704.6,3016.8,195.8,68.6,13.4
0.049000,858.2,156.0,1736.3,342.2,3054.3,255.3,871.4,1707.8,3018.6,196.1,68.4,13.3
0.051000,863.0,149.4,1744.3,297.0,3066.5,270.5,877.7,1710.9,3020.5,196.5,68.2,13.3
0.053000,864.9,147.7,1746.8,271.8,3076.9,289.1,883.2,1713.9,3022.6,196.9,68,13.5
0.055000,867.2,148.9,1750.9,283.2,3085.8,311.9,887.8,1716.8,3024.9,197.3,67.8,13.9
0.057000,871.6,150.1,1756.8,336.9,3081.9,321.3,891.3,1719.3,3027.3,197.7,67.6,14.7
0.059000,877.1,150.2,1754.7,404.8,3058.0,301.7,893.7,1721.6,3029.9,198.1,67.4,15.9
0.061000,882.6,149.0,1736.9,434.8,3023.6,259.9,894.9,1723.6,3032.7,198.6,67.3,17.3
0.063000,887.1,145.3,1718.0,416.7,2995.5,224.5,895,1725.2,3035.6,199.1,67.1,18.4
0.065000,891.4,137.9,1708.5,398.8,2974.6,204.5,893.9,1726.4,3038.6,199.5,67,19
0.067000,894.7,129.1,1706.2,407.8,2964.5,200.0,891.7,1727.2,3041.7,200.1,66.9,19
0.069000,896.1,123.4,1703.5,443.3,2969.6,207.4,888.5,1727.6,3045,200.6,66.8,18.5
0.071000,895.7,123.1,1694.0,497.4,2989.4,221.0,884.3,1727.5,3048.3,201.1,66.7,17.9
0.073000,893.4,129.0,1679.4,555.2,3012.1,239.1,879.4,1726.9,3051.8,201.7,66.6,17.2
0.075000,888.4,138.5,1666.9,602.2,3028.5,269.1,873.8,1725.9,3055.3,202.3,66.5,16.9
0.077000,881.1,144.5,1666.6,627.3,3032.3,320.8,867.8,1724.4,3058.9,202.9,66.4,17
0.079000,875.0,146.6,1686.0,672.2,3029.3,408.9,861.5,1722.5,3062.5,203.5,66.2,17.3
0.081000,872.0,148.0,1732.9,754.0,3042.1,530.8,855.1,1720.1,3066.2,204.1,66.1,17.7
0.083000,870.3,152.6,1777.9,773.6,3080.3,600.4,848.8,1717.4,3070,204.7,66,18
0.085000,866.7,165.6,1777.5,673.0,3112.6,585.6,842.7,1714.2,3073.8,205.4,65.8,18.1
0.087000,859.6,179.6,1745.1,513.7,3122.2,544.0,837.1,1710.7,3077.6,206,65.7,17.8
0.089000,850.7,180.1,1715.1,371.2,3123.1,505.1,832,1706.9,3081.5,206.7,65.6,17.4
0.091000,841.8,167.2,1694.3,265.7,3128.1,453.5,827.6,1702.8,3085.4,207.4,65.5,16.8
0.093000,833.8,155.6,1683.5,210.4,3139.6,385.2,824.1,1698.4,3089.4,208,65.4,16.3
0.095000,825.3,155.1,1680.5,193.5,3146.5,309.5,821.4,1693.9,3093.5,208.7,65.3,15.9
0.097000,817.4,164.7,1684.7,209.3,3137.8,252.5,819.6,1689.1,3097.6,209.4,65.2,15.8
0.099000,812.9,173.0,1694.5,244.8,3122.0,218.4,818.8,1684.2,3101.9,210.1,65.1,15.8
0.101000,812.8,174.6,1707.4,289.5,3112.3,195.0,819,1679.3,3106.3,210.7,65,15.9
0.103000,814.2,174.8,1712.9,319.7,3114.2,179.6,820,1674.2,3110.9,211.4,64.9,16
0.105000,812.3,180.6,1699.8,318.0,3121.2,170.7,821.9,1669.1,3115.6,212,64.7,16.1
0.107000,804.8,193.2,1673.0,293.5,3125.5,172.1,824.6,1664.1,3120.6,212.6,64.6,16.2
0.109000,796.1,207.8,1647.5,269.3,3123.1,184.0,827.9,1659,3125.8,213.2,64.4,16.3
0.111000,792.0,224.0,1629.8,248.9,3114.1,202.7,831.8,1654.1,3131.3,213.8,64.2,16.4
0.113000,795.7,243.2,1624.0,231.6,3105.2,220.1,836,1649.2,3137,214.4,64,16.6
0.115000,806.4,270.5,1626.3,217.8,3104.2,234.5,840.4,1644.4,3143.1,214.9,63.8,16.9
0.117000,820.1,302.0,1634.1,209.3,3115.5,245.4,844.9,1639.8,3149.5,215.4,63.6,17.3
0.119000,831.6,334.4,1645.1,204.0,3131.5,251.1,849.4,1635.4,3156.3,215.8,63.4,18
0.121000,839.5,382.0,1653.6,204.1,3141.6,251.7,853.5,1631.1,3163.4,216.2,63.2,18.6
0.123000,843.1,458.9,1650.3,215.7,3144.3,251.9,857.4,1627.1,3171,216.6,63,19.2
0.125000,841.4,580.9,1629.5,236.6,3148.5,253.7,860.7,1623.2,3178.9,217,62.8,19.5
0.127000,833.6,718.9,1597.9,247.7,3160.7,253.1,863.4,1619.6,3187.3,217.3,62.6,19.6
0.129000,838.3,792.6,1577.4,242.3,3182.5,247.9,865.4,1616.2,3196.1,217.6,62.4,19.5
0.131000,876.0,757.7,1576.1,231.2,3210.5,238.9,866.6,1613,3205.3,217.8,62.2,19.3
0.133000,921.6,658.8,1584.9,213.3,3231.6,230.8,867.1,1610.1,3214.8,218,62,19
0.135000,954.0,562.7,1590.8,184.7,3242.9,226.6,866.8,1607.4,3224.8,218.2,61.7,18.7
0.137000,966.6,501.4,1589.4,155.2,3246.0,229.3,865.8,1605,3235.1,218.3,61.5,18.3
0.139000,962.5,472.4,1585.3,133.4,3246.3,242.5,864.1,1602.9,3245.7,218.4,61.1,17.8
0.141000,949.8,480.9,1586.4,122.3,3257.5,269.0,861.7,1601,3256.6,218.5,60.8,17.2
0.143000,937.2,523.2,1601.5,117.7,3287.6,292.4,858.8,1599.4,3267.8,218.6,60.4,16.7
0.145000,921.4,584.4,1625.9,104.1,3323.4,293.6,855.5,1598.1,3279.2,218.6,59.9,16.4
0.147000,900.9,675.3,1638.6,84.9,3346.9,283.8,851.9,1597,3290.7,218.6,59.5,16.3
0.149000,875.3,796.5,1635.9,71.8,3355.7,283.8,848.3,1596.2,3302.4,218.6,59,16.3
0.151000,829.6,931.5,1626.8,63.6,3347.4,289.4,844.7,1595.7,3314.2,218.7,58.5,16.5
0.153000,765.9,1008.2,1620.4,58.6,3320.9,280.2,841.3,1595.4,3325.9,218.7,57.9,16.6
0.155000,706.0,999.8,1621.2,56.3,3294.6,246.1,838.2,1595.4,3337.6,218.7,57.3,16.6
0.157000,664.5,971.4,1627.0,56.5,3294.2,216.1,835.7,1595.6,3349.3,218.7,56.7,19.9
0.159000,636.1,1003.5,1624.6,58.1,3317.4,210.8,833.8,1596,3360.8,218.7,56,26.6
0.161000,624.7,1103.2,1605.6,59.0,3351.5,218.5,832.7,1596.7,3372,218.7,55.3,31.5
0.163000,651.7,1196.2,1583.4,59.2,3380.0,216.3,832.5,1597.5,3383.1,218.8,54.5,29.6
0.165000,747.2,1241.9,1569.5,66.9,3405.3,199.5,833.2,1598.6,3393.9,218.8,53.7,15.7
0.167000,882.4,1242.8,1565.1,89.9,3429.3,172.0,834.9,1599.8,3404.3,218.9,52.8,-17.2
0.169000,996.4,1205.8,1565.0,124.7,3446.2,150.8,837.6,1601.1,3414.4,218.9,51.9,-65.5
0.171000,1061.6,1154.4,1567.3,159.4,3458.8,144.8,841.3,1602.6,3424,219,50.8,-119
0.173000,1057.5,1077.9,1577.0,170.8,3468.5,154.4,846,1604.2,3433.2,219.1,49.7,-167.2
0.175000,1000.4,923.8,1596.0,153.1,3472.7,173.1,851.6,1605.9,3441.9,219.2,48.7,-200
0.177000,940.0,733.1,1609.8,120.4,3463.4,179.1,858,1607.7,3450.2,219.3,47.4,-213.8
0.179000,902.0,587.8,1611.3,94.8,3446.6,159.0,865,1609.4,3457.9,219.5,46.3,-215.5
0.181000,876.4,485.1,1605.3,80.0,3430.6,131.6,872.5,1611.2,3465.1,219.6,45.1,-210.4
0.183000,859.8,405.7,1599.4,75.3,3421.2,117.9,880.4,1613,3471.7,219.8,43.9,-203.5
0.185000,851.6,331.5,1600.0,76.8,3418.3,122.6,888.5,1614.7,3477.7,219.9,42.8,-200
0.187000,849.3,280.8,1614.3,78.2,3418.8,148.5,896.5,1616.3,3483.2,220,41.9,-200
0.189000,847.6,257.7,1635.4,68.1,3421.4,199.8,904.4,1617.9,3488.1,0,41.3,-200
0.191000,851.3,255.3,1648.8,51.7,3434.6,311.3,911.9,1619.3,3492.5,0,40.9,-200
0.193000,866.4,261.2,1652.2,42.5,3488.3,567.1,918.7,1620.6,3496.2,0,40.7,-200
0.195000,889.8,256.0,1650.0,40.4,3467.9,1239.1,924.9,1621.7,3499.4,0,40.7,-200
0.197000,913.1,238.1,1642.0,42.2,3420.9,1675.2,930.2,1622.7,3502,0,40.6,-200
0.199000,929.6,221.0,1627.8,43.8,3494.8,1766.7,934.4,1623.4,3504,0,40.6,-200
0.201000,941.4,214.7,1611.2,43.2,3594.2,1592.0,937.5,1624,3505.5,0,40.4,-200
0.203000,956.1,229.7,1603.3,43.3,3637.2,222.7,939.4,1624.3,3506.3,0,40.2,-200
0.205000,980.3,268.9,1607.8,49.7,3617.0,232.7,940,1624.4,3506.6,0,39.9,-200
