time,f1,b1,f2,b2,f3,b3,f1p,f2p,f3p,f0,intensity,harmonicity
0.025000,811.6,60.1,1801.7,130.1,3082.3,642.8,841.4,1825.6,2868.4,159.1,70.7,7.6
0.027000,810.4,67.2,1821.7,131.6,3061.0,1005.5,841.9,1824.5,2869,158.7,70.6,8.6
0.029000,811.5,76.2,1836.1,142.2,2963.7,1399.7,842.8,1822.8,2870,158.3,70.4,9.2
0.031000,816.8,84.5,1839.9,161.4,2770.4,1429.1,844,1820.5,2871.3,157.9,70.2,9.7
0.033000,826.3,90.3,1831.9,176.3,2687.3,1183.5,845.5,1817.5,2873.1,157.5,70,10.1
0.035000,837.4,93.1,1817.3,175.2,2687.3,939.0,847.4,1813.8,2875.2,157,69.9,10.4
0.037000,848.5,95.1,1803.5,163.0,2710.1,779.1,849.7,1809.5,2877.6,156.6,69.8,10.6
0.039000,859.2,98.0,1794.1,148.5,2746.4,716.4,852.2,1804.7,2880.4,156.1,69.8,10.7
0.041000,869.1,99.9,1787.5,134.2,2801.2,714.4,855.2,1799.2,2883.6,155.7,69.7,10.8
0.043000,879.3,98.7,1779.7,118.8,2860.7,718.0,858.4,1793.3,2887,155.2,69.7,10.8
0.045000,889.4,94.7,1771.6,103.7,2899.7,710.9,862,1786.8,2890.8,154.7,69.8,10.8
0.047000,896.1,90.8,1768.7,92.6,2919.5,727.2,865.9,1779.9,2894.8,154.3,69.8,10.9
0.049000,898.6,89.2,1772.9,85.2,2935.2,770.6,870.1,1772.5,2899.2,153.8,69.8,11
0.051000,899.4,89.4,1778.8,79.9,2952.5,796.2,874.6,1764.8,2903.7,153.3,69.8,11.1
0.053000,900.9,90.7,1779.6,78.4,2975.0,753.3,879.4,1756.7,2908.5,152.9,69.8,11.2
0.055000,903.9,93.2,1772.5,84.9,2995.1,661.6,884.4,1748.4,2913.6,152.4,69.9,11.3
0.057000,907.1,99.2,1758.2,105.3,3015.2,602.1,889.6,1739.8,2918.8,151.9,69.9,11.5
0.059000,908.2,107.6,1738.3,141.7,3042.9,610.6,895,1731,2924.2,151.5,70,11.7
0.061000,908.0,114.5,1716.8,179.8,3066.7,649.7,900.6,1722.1,2929.9,151.1,70,11.9
0.063000,909.5,119.5,1699.6,197.7,3043.0,648.1,906.2,1713.2,2935.6,150.7,70,12.1
0.065000,912.0,124.8,1688.1,201.3,2983.4,598.3,911.9,1704.2,2941.5,150.3,70.1,12.2
0.067000,913.3,129.2,1678.1,207.5,2935.9,544.2,917.6,1695.2,2947.6,149.9,70.1,12.4
0.069000,915.0,132.5,1665.1,219.5,2910.7,509.5,923.2,1686.4,2953.8,149.5,70.1,12.5
0.071000,918.0,136.6,1648.5,230.5,2895.1,497.2,928.7,1677.7,2960.1,149.1,70,12.6
0.073000,922.8,139.1,1637.7,230.7,2880.0,510.7,934.1,1669.2,2966.5,148.7,69.9,12.7
0.075000,930.2,137.8,1642.2,221.9,2865.3,566.0,939.2,1661,2972.9,148.4,69.8,12.8
0.077000,940.3,136.2,1660.1,213.2,2871.6,665.0,944,1653.1,2979.5,148,69.7,13
0.079000,950.7,134.1,1679.4,200.2,2927.8,700.1,948.5,1645.6,2986.2,147.7,69.5,13.4
0.081000,956.8,129.0,1688.9,185.0,2992.4,599.4,952.6,1638.4,2992.9,147.4,69.4,13.7
0.083000,957.6,123.5,1688.4,180.2,3029.4,470.7,956.3,1631.7,2999.6,147.1,69.2,13.9
0.085000,955.7,120.6,1679.0,195.9,3046.4,374.3,959.4,1625.5,3006.4,146.8,69,13.9
0.087000,952.4,121.7,1659.3,236.4,3049.5,310.5,962,1619.9,3013.3,146.5,68.9,13.5
0.089000,949.5,126.0,1632.6,285.8,3043.6,266.6,964.1,1614.7,3020.2,146.3,68.7,12.9
0.091000,949.1,131.0,1609.4,312.8,3036.2,235.0,965.6,1610.2,3027.1,146,68.5,12.2
0.093000,950.6,132.9,1595.2,305.5,3029.8,212.1,966.4,1606.3,3033.9,145.8,68.2,11.6
0.095000,952.5,128.4,1586.2,278.6,3023.1,193.4,966.7,1603,3040.8,145.5,67.9,11.4
0.097000,954.6,121.5,1575.9,257.7,3017.5,174.0,966.4,1600.3,3047.7,145.3,67.5,11.5
0.099000,957.2,119.2,1559.8,261.3,3020.6,154.8,965.4,1598.2,3054.5,145.1,67.2,12.1
0.101000,959.4,123.3,1543.4,288.0,3036.8,141.3,963.9,1596.7,3061.3,144.9,66.8,12.7
0.103000,960.3,131.4,1544.4,317.6,3057.8,139.2,961.9,1595.9,3068,144.7,66.6,13.2
0.105000,958.2,144.5,1561.5,342.8,3073.4,155.9,959.4,1595.6,3074.6,144.6,66.4,13.5
0.107000,951.9,156.3,1577.0,363.2,3081.1,189.9,956.5,1596,3081.1,144.5,66.3,13.3
0.109000,944.5,157.2,1588.9,373.8,3084.2,225.0,953.2,1596.9,3087.5,144.3,66.3,12.8
0.111000,939.3,151.0,1601.3,377.9,3087.3,239.3,949.6,1598.3,3093.7,144.2,66.2,12.3
0.113000,937.1,143.1,1612.8,378.6,3092.6,222.7,945.8,1600.2,3099.8,144.2,66.1,11.9
0.115000,937.5,131.9,1621.2,364.3,3098.6,181.0,941.9,1602.5,3105.7,144.1,65.9,12
0.117000,939.1,119.1,1627.2,331.6,3105.3,135.6,937.9,1605.2,3111.5,144.1,65.7,12.7
0.119000,940.3,113.1,1632.2,303.6,3115.4,107.6,934.1,1608.3,3117,144,65.4,13.9
0.121000,940.8,115.1,1633.5,287.6,3128.1,98.0,930.4,1611.7,3122.3,144,65.1,15.3
0.123000,940.7,119.1,1629.8,272.8,3140.7,97.4,926.9,1615.3,3127.3,144.1,64.8,16.4
0.125000,941.6,121.2,1624.8,255.3,3151.1,100.1,923.8,1619.1,3132.1,144.1,64.5,16.9
0.127000,944.0,119.0,1619.7,236.6,3157.2,107.2,921.2,1623,3136.7,144.1,64.2,16.4
0.129000,945.9,112.5,1616.3,217.6,3160.1,125.1,919.1,1627,3141,144.2,64,15.4
0.131000,947.1,107.7,1620.6,199.5,3168.3,164.3,917.7,1631.1,3145,144.3,63.7,14
0.133000,949.2,109.1,1631.5,180.6,3192.4,224.1,916.9,1635,3148.7,144.4,63.5,12.7
0.135000,951.7,116.3,1638.0,163.8,3219.7,275.0,916.9,1638.9,3152.2,144.5,63.3,11.7
0.137000,952.2,129.2,1637.2,156.2,3224.5,296.5,917.7,1642.7,3155.5,144.6,63,11
0.139000,950.2,149.4,1633.0,159.9,3207.0,290.9,919.4,1646.2,3158.4,144.7,62.8,10.4
0.141000,945.8,177.8,1627.6,177.7,3184.0,270.3,922,1649.5,3161.2,144.8,62.6,10
0.143000,939.1,211.6,1623.6,216.2,3164.3,249.0,925.4,1652.6,3163.8,145,62.3,9.7
0.145000,931.4,249.9,1627.3,286.1,3142.2,234.2,929.7,1655.3,3166.1,145.1,62,9.5
0.147000,924.1,292.9,1651.0,400.0,3113.4,227.2,935,1657.6,3168.3,145.2,61.6,9.5
0.149000,914.4,322.8,1710.5,527.6,3093.2,214.6,941,1659.6,3170.4,145.2,61.3,9.8
0.151000,899.9,338.6,1768.4,565.5,3097.5,189.4,947.9,1661.1,3172.3,145.3,60.9,10.1
0.153000,894.1,369.1,1753.2,500.4,3116.0,164.4,955.5,1662.3,3174.2,145.4,60.6,10.4
0.155000,891.0,398.2,1715.8,398.9,3138.2,151.9,963.7,1662.9,3176.1,145.4,60.3,10.7
0.157000,887.2,420.9,1696.3,307.8,3161.7,148.9,972.6,1663.2,3177.9,145.4,60.1,10.9
0.159000,896.6,446.0,1689.6,241.3,3186.7,147.1,981.9,1663,3179.8,145.4,59.9,11.2
0.161000,927.9,471.4,1684.6,207.1,3211.2,145.3,991.6,1662.3,3181.8,145.4,59.6,11.4
0.163000,972.1,487.4,1672.8,209.0,3227.0,147.8,1001.6,1661.2,3183.9,145.3,59.4,11.6
0.165000,1016.5,524.2,1642.3,253.6,3225.4,159.7,1011.7,1659.7,3186.2,145.2,59.2,11.6
0.167000,1060.5,633.0,1574.8,328.4,3205.8,177.3,1021.9,1657.7,3188.7,145.1,58.9,11.3
0.169000,1087.0,754.5,1509.1,345.3,3184.3,184.4,1031.9,1655.4,3191.4,145,58.7,10.9
0.171000,1090.3,636.8,1544.6,312.5,3182.6,181.3,1041.8,1652.7,3194.4,144.9,58.5,10.4
0.173000,1090.8,486.7,1605.4,226.2,3195.7,176.8,1051.3,1649.7,3197.6,144.7,58.3,10
0.175000,1103.1,417.2,1628.7,154.5,3208.5,168.7,1060.4,1646.3,3201.2,144.5,58,9.8
0.177000,1118.3,395.8,1630.1,116.5,3213.0,153.4,1068.9,1642.7,3205.2,144.3,57.7,9.7
0.179000,1127.0,408.5,1622.3,101.1,3208.9,137.0,1076.7,1638.8,3209.4,144.1,57.4,9.7
0.181000,1129.2,463.3,1609.4,103.0,3199.5,128.9,1083.8,1634.7,3214.1,143.8,57.1,9.9
0.183000,1131.7,570.2,1593.2,118.5,3189.4,131.4,1090.1,1630.5,3219.1,143.6,56.8,10.1
0.185000,1137.8,704.1,1578.5,140.8,3182.3,139.9,1095.5,1626.1,3224.4,143.3,56.4,10.3
0.187000,1141.0,764.8,1576.2,178.0,3180.0,148.2,1100,1621.6,3230.1,143,56.1,14
0.189000,1125.3,638.5,1606.6,257.9,3185.0,150.9,1103.6,1617,3236.2,142.7,55.8,21.1
0.191000,1080.7,418.0,1685.4,345.2,3200.5,147.0,1106.2,1612.5,3242.5,142.4,55.5,26.6
0.193000,1044.2,287.1,1744.5,385.6,3223.2,146.3,1107.8,1607.9,3249.1,142.1,55.2,25.3
0.195000,1027.6,257.8,1736.5,413.7,3249.8,162.4,1108.4,1603.3,3256,141.8,54.9,12
0.197000,1016.9,282.3,1702.1,450.8,3282.1,196.6,1108.2,1598.8,3263.1,141.5,54.6,-20.1
0.199000,1009.9,331.3,1672.9,477.8,3316.8,230.6,1107,1594.5,3270.3,141.1,54.3,-67.6
0.201000,1016.7,404.0,1647.5,449.9,3347.2,246.8,1105.1,1590.2,3277.6,140.8,53.9,-120.2
0.203000,1052.6,514.8,1615.9,368.7,3368.7,249.5,1102.5,1586.1,3285,140.5,53.5,-167.8
0.205000,1117.7,655.9,1580.6,281.2,3372.1,252.3,1099.2,1582.1,3292.4,140.1,53.1,-200
0.207000,1173.1,820.6,1549.9,198.2,3353.0,261.7,1095.3,1578.3,3299.7,139.8,52.7,-213.6
0.209000,1185.1,991.0,1532.1,131.3,3327.3,264.2,1091.1,1574.8,3306.8,139.5,52.2,-215.3
0.211000,1164.5,1120.1,1522.7,93.1,3316.3,251.0,1086.5,1571.4,3313.8,139.1,51.7,-210.2
0.213000,1130.6,1148.0,1517.0,79.8,3324.4,229.5,1081.7,1568.3,3320.5,138.8,51,-203.4
0.215000,1094.4,1026.3,1514.2,89.0,3342.6,203.4,1076.9,1565.4,3326.8,138.5,50.4,-200
0.217000,1070.7,803.1,1515.4,125.4,3354.2,175.0,1072,1562.8,3332.8,138.2,49.6,-200
0.219000,1062.0,627.3,1519.1,197.4,3354.2,153.2,1067.4,1560.5,3338.3,137.9,48.7,-200
0.221000,1066.0,541.4,1517.8,302.1,3353.3,138.6,1062.9,1558.4,3343.3,137.6,47.8,-200
0.223000,1063.2,538.4,1508.6,347.9,3358.5,125.4,1058.9,1556.5,3347.8,137.3,46.9,-200
0.225000,1039.1,569.2,1518.1,272.7,3367.4,108.7,1055.3,1555,3351.6,137,45.9,-200
0.227000,1036.6,584.1,1547.0,193.4,3374.4,92.3,1052.2,1553.7,3354.8,136.7,45.1,-200
0.229000,1054.5,584.8,1575.4,145.2,3380.0,83.9,1049.8,1552.7,3357.4,0,44.1,-200
0.231000,1053.2,555.3,1595.0,114.0,3391.7,87.6,1048,1552,3359.2,0,43.4,-200
0.233000,1025.9,501.3,1603.3,92.6,3416.9,99.3,1046.9,1551.6,3360.3,0,42.8,-200
0.235000,1006.4,441.2,1602.9,80.2,2996.8,6630.0,1046.5,1551.4,3360.7,0,42.1,-200
