time,f1,b1,f2,b2,f3,b3,f1p,f2p,f3p,f0,intensity,harmonicity
0.025000,772.8,115.0,1675.0,209.4,3355.0,133.0,786.3,1606,3400.4,197.7,65.6,19.4
0.027000,772.4,114.7,1676.0,224.6,3363.4,145.8,785.5,1606.1,3400.5,198,65.6,19.5
0.029000,774.0,114.7,1677.8,234.2,3371.4,159.8,784.3,1606.2,3400.7,198.3,65.6,19.5
0.031000,778.0,114.2,1681.5,243.8,3377.3,173.8,782.6,1606.4,3401,198.7,65.5,19.5
0.033000,782.9,112.4,1686.4,259.6,3382.6,187.6,780.6,1606.5,3401.3,199,65.5,19.5
0.035000,786.3,110.8,1688.4,291.2,3393.3,201.1,778.4,1606.6,3401.8,199.4,65.4,19.5
0.037000,787.5,111.6,1680.6,343.7,3410.8,211.0,775.9,1606.6,3402.4,199.8,65.4,19.6
0.039000,787.0,115.5,1655.7,403.3,3428.1,213.1,773.5,1606.5,3403,200.2,65.4,19.8
0.041000,785.7,120.3,1620.7,422.4,3438.3,205.9,771.1,1606.2,3403.8,200.7,65.4,20
0.043000,784.7,123.8,1593.4,397.8,3441.5,194.2,769,1605.6,3404.7,201.1,65.3,20.1
0.045000,782.8,128.6,1572.3,384.5,3439.9,186.7,767.2,1604.8,3405.7,201.6,65.3,20.1
0.047000,778.0,135.9,1547.3,408.1,3436.3,188.6,765.8,1603.6,3406.9,202.1,65.3,19.9
0.049000,772.5,141.8,1517.4,446.3,3430.8,193.7,765,1602,3408.1,202.6,65.2,19.4
0.051000,770.0,144.5,1496.8,474.9,3425.9,194.7,764.9,1600,3409.6,203.2,65.2,18.9
0.053000,770.1,145.6,1492.3,494.9,3423.9,189.4,765.5,1597.5,3411.1,203.7,65.1,18.5
0.055000,770.7,147.3,1496.7,516.5,3422.7,178.0,767,1594.5,3412.9,204.3,65,18.4
0.057000,770.3,151.3,1495.6,548.7,3419.3,165.1,769.2,1590.9,3414.8,204.9,65,18.7
0.059000,768.9,158.1,1479.8,592.8,3414.4,154.1,772.3,1586.7,3416.9,205.5,64.9,19.3
0.061000,767.7,166.5,1455.1,634.9,3412.1,145.8,776.3,1581.9,3419.1,206.1,64.7,19.9
0.063000,767.6,175.7,1435.4,671.9,3414.9,139.9,781,1576.5,3421.6,206.7,64.6,20.5
0.065000,769.0,185.2,1429.8,710.4,3422.7,137.9,786.5,1570.5,3424.2,207.4,64.5,21
0.067000,772.7,194.0,1441.3,746.4,3433.9,140.1,792.6,1564,3427.1,208.1,64.4,21.2
0.069000,779.5,200.6,1471.0,763.7,3445.3,143.5,799.2,1556.8,3430.1,208.8,64.3,21.3
0.071000,788.9,202.0,1513.7,743.8,3448.1,141.5,806.2,1549.2,3433.4,209.5,64.2,21.3
0.073000,800.4,195.5,1562.4,690.3,3438.4,132.8,813.3,1541.1,3436.8,210.2,64.1,21.3
0.075000,812.1,181.5,1608.7,619.3,3422.9,123.7,820.4,1532.5,3440.5,211,64,21.2
0.077000,820.9,166.8,1640.7,560.0,3410.9,119.6,827.4,1523.6,3444.4,211.7,63.9,21
0.079000,826.8,156.1,1656.3,526.5,3406.6,118.7,833.9,1514.4,3448.5,212.5,63.8,20.8
0.081000,830.4,151.5,1652.3,522.5,3410.7,117.9,839.8,1505,3452.8,213.3,63.7,20.5
0.083000,833.1,153.6,1628.4,538.8,3418.2,117.1,844.9,1495.6,3457.3,214.2,63.6,20.2
0.085000,835.7,163.3,1591.8,565.3,3427.4,118.9,849,1486.1,3461.9,215,63.4,19.9
0.087000,839.3,178.0,1558.2,592.9,3442.8,120.4,851.9,1476.6,3466.8,215.9,63.3,19.4
0.089000,845.1,191.3,1537.3,607.6,3466.8,112.2,853.3,1467.4,3471.8,216.8,63.2,18.9
0.091000,852.1,196.8,1531.5,598.0,3488.6,98.1,853.3,1458.5,3476.9,217.8,63,18.3
0.093000,858.3,201.9,1532.2,587.8,3503.2,93.6,851.6,1449.9,3482.3,218.7,62.9,17.9
0.095000,863.8,218.6,1531.9,601.8,3517.3,105.4,848.2,1441.8,3487.7,219.7,62.8,17.6
0.097000,869.0,251.6,1524.6,631.6,3538.1,133.4,843,1434.2,3493.2,220.7,62.7,17.6
0.099000,875.1,302.3,1507.0,655.7,3565.0,171.2,836,1427.3,3498.8,221.7,62.6,17.6
0.101000,882.6,362.8,1481.6,660.8,3576.0,197.9,827.3,1421.1,3504.5,222.7,62.5,17.8
0.103000,892.2,427.7,1449.2,658.5,3556.0,199.8,816.8,1415.7,3510.3,223.7,62.5,18.1
0.105000,904.8,508.7,1400.8,664.1,3521.6,180.3,804.8,1411.2,3516,224.8,62.4,18.4
0.107000,917.6,657.2,1318.2,653.9,3497.3,160.4,791.4,1407.5,3521.8,225.8,62.3,18.8
0.109000,843.0,1018.5,1232.0,500.8,3491.9,154.4,776.8,1404.7,3527.5,226.9,62.3,19.3
0.111000,581.4,1152.9,1226.0,383.5,3501.4,156.9,761.2,1402.9,3533.2,227.9,62.3,19.9
0.113000,496.3,1022.7,1242.3,347.7,3516.1,148.9,744.8,1402.1,3538.9,229,62.2,20.4
0.115000,551.2,1074.2,1273.1,346.3,3530.5,129.4,728.1,1402.2,3544.4,230.1,62.2,20.7
0.117000,640.3,1021.2,1313.4,337.5,3541.6,110.7,711.2,1403.3,3549.9,231.1,62.1,20.6
0.119000,673.1,917.5,1354.9,296.6,3549.9,98.7,694.6,1405.3,3555.1,232.2,62.1,20.4
0.121000,686.4,825.8,1387.6,239.1,3556.0,95.2,678.6,1408.1,3560.3,233.2,62.1,20.1
0.123000,712.1,726.4,1413.7,186.3,3559.6,99.8,663.4,1411.8,3565.3,234.2,62.1,19.8
0.125000,739.0,630.2,1434.6,145.5,3557.7,112.8,649.6,1416.3,3570,235.2,62.1,19.8
0.127000,749.4,581.4,1448.7,119.7,3551.1,128.2,637.3,1421.5,3574.6,236.2,62,20
0.129000,743.9,574.9,1457.4,102.9,3547.4,135.2,627,1427.4,3578.9,237.2,62,20.3
0.131000,724.2,595.6,1460.6,90.9,3550.7,132.6,618.9,1433.8,3583,238.1,61.9,20.8
0.133000,691.3,640.1,1460.2,82.8,3558.6,131.7,613.2,1440.6,3586.8,239,61.9,21.2
0.135000,655.7,696.2,1460.5,78.8,3568.7,140.1,610.1,1447.9,3590.3,239.8,61.8,21.6
0.137000,637.2,748.9,1464.9,79.8,3579.9,158.5,609.9,1455.4,3593.6,240.7,61.8,21.9
0.139000,637.9,803.6,1474.3,86.0,3594.4,189.1,612.5,1463.2,3596.6,241.5,61.7,22.2
0.141000,638.1,863.2,1485.6,93.9,3615.1,224.2,618.2,1471.1,3599.2,242.2,61.6,22.5
0.143000,625.0,922.1,1495.2,98.8,3638.3,241.6,626.7,1479,3601.6,242.9,61.5,22.7
0.145000,605.6,964.1,1501.1,98.4,3654.4,239.0,638.2,1486.9,3603.8,243.5,61.5,22.9
0.147000,596.2,973.1,1503.5,94.4,3662.6,236.9,652.3,1494.6,3605.6,244.1,61.4,23
0.149000,596.0,954.8,1503.9,90.0,3664.1,248.7,669,1502.1,3607.1,244.7,61.3,23.1
0.151000,593.6,938.1,1504.1,89.7,3659.5,277.5,688,1509.4,3608.4,245.1,61.3,23.1
0.153000,596.0,938.9,1507.2,95.7,3654.4,302.0,708.9,1516.3,3609.4,245.6,61.2,23.1
0.155000,625.8,927.5,1515.4,106.6,3647.6,286.8,731.4,1522.9,3610.2,245.9,61.1,23.2
0.157000,671.8,887.1,1527.3,119.9,3633.5,242.4,755,1529,3610.7,246.2,61.1,23.5
0.159000,712.7,847.0,1540.0,136.5,3617.7,201.3,779.3,1534.7,3611,246.5,61,23.9
0.161000,738.4,839.4,1549.2,153.2,3605.5,183.9,803.7,1540,3611.1,246.7,61,24.4
0.163000,744.9,873.0,1552.0,162.6,3595.9,189.6,827.8,1544.7,3611,246.8,60.9,24.7
0.165000,732.8,934.6,1549.8,162.2,3587.2,205.0,851,1549,3610.7,246.9,60.9,24.9
0.167000,722.5,981.5,1548.3,158.6,3578.7,211.1,872.8,1552.8,3610.3,246.9,60.8,25.1
0.169000,741.2,980.0,1550.8,159.5,3571.3,209.8,892.6,1556.1,3609.7,246.8,60.8,25.3
0.171000,784.6,945.4,1556.0,169.8,3567.8,217.3,909.9,1558.9,3609.1,246.7,60.7,25.3
0.173000,846.5,932.1,1562.0,196.8,3567.2,238.6,924.1,1561.3,3608.3,246.6,60.6,25
0.175000,960.8,931.9,1573.6,256.1,3569.0,255.7,934.9,1563.4,3607.4,246.3,60.5,24.1
0.177000,1130.0,824.9,1599.1,354.4,3571.8,240.7,941.8,1565,3606.5,246,60.3,22.2
0.179000,1268.7,585.3,1651.0,479.6,3572.4,205.8,944.4,1566.3,3605.6,245.7,60.1,19.5
0.181000,1321.8,418.0,1707.7,536.8,3570.9,178.5,942.4,1567.3,3604.6,245.3,59.9,16.5
0.183000,1343.9,369.9,1713.5,545.2,3568.6,166.6,935.6,1568.1,3603.6,244.9,59.7,13.9
0.185000,1356.7,416.6,1659.8,537.0,3566.7,169.8,923.8,1568.7,3602.7,244.4,59.5,12.3
0.187000,1352.6,638.9,1564.4,422.7,3567.8,187.5,907,1569.1,3601.7,243.8,59.3,11.7
0.189000,1218.8,964.7,1537.9,272.0,3577.3,221.0,885.1,1569.3,3600.8,243.2,59.1,11.8
0.191000,1035.1,1210.0,1528.4,204.3,3600.3,256.3,858.3,1569.5,3599.9,242.6,59,12.5
0.193000,864.3,1333.2,1525.4,164.9,3623.7,259.2,826.8,1569.6,3599.1,242,58.8,13.3
0.195000,721.8,1406.0,1520.5,134.1,3631.1,223.0,790.7,1569.7,3598.3,241.3,58.7,14
0.197000,552.0,1519.2,1510.5,112.4,3630.4,174.3,750.5,1569.7,3597.6,240.6,58.6,14.9
0.199000,163.9,1640.0,1496.7,101.4,3631.2,136.2,706.5,1569.8,3596.9,239.8,58.4,16
0.201000,179.7,720.0,1481.0,102.4,3638.1,121.6,659.3,1569.9,3596.3,239.1,58.2,17.2
0.203000,227.0,598.8,1468.2,113.7,3652.8,128.3,609.5,1570.1,3595.8,238.3,58,18.2
0.205000,243.4,533.4,1469.9,130.4,3675.0,153.0,557.7,1570.3,3595.4,237.5,57.7,18.9
0.207000,252.2,474.7,1489.1,140.9,3696.1,192.0,504.4,1570.6,3595,236.8,57.5,19.3
0.209000,256.8,410.2,1511.7,134.9,3689.7,244.6,450.6,1570.9,3594.6,236,57.2,19.3
0.211000,253.9,386.5,1523.7,115.5,3630.2,260.1,396.8,1571.2,3594.3,235.2,56.9,19.2
0.213000,243.4,427.6,1530.2,97.5,3573.5,204.9,343.8,1571.6,3594.1,234.4,56.6,19.1
0.215000,222.7,514.0,1538.0,89.6,3553.9,154.8,292.4,1572.1,3593.9,233.7,56.3,19
0.217000,190.5,609.9,1548.8,91.2,3552.3,131.5,243.2,1572.5,3593.8,233,56,18.9
0.219000,144.8,697.2,1564.0,101.7,3556.1,125.8,197.1,1573,3593.7,232.2,55.7,18.7
0.221000,107.1,746.4,1584.5,123.2,3561.9,135.8,154.7,1573.4,3593.6,231.6,55.4,18.5
0.223000,134.5,722.7,1611.3,159.5,3571.5,162.7,116.5,1573.9,3593.5,230.9,55.1,18.4
0.225000,189.5,635.6,1639.7,207.6,3588.4,203.9,83.2,1574.3,3593.5,230.3,54.7,18.4
0.227000,226.0,530.4,1654.5,244.8,3607.3,246.5,55.2,1574.6,3593.5,229.6,54.4,18.6
0.229000,245.1,422.6,1647.6,244.1,3611.2,282.7,33,1574.9,3593.4,229.1,53.9,18.9
0.231000,249.0,352.1,1635.5,202.5,3584.4,310.9,17,1575.1,3593.4,228.5,53.4,19.2
0.233000,239.2,349.8,1632.8,166.0,3544.7,329.0,7.2,1575.2,3593.4,228,52.8,19.4
0.235000,203.4,437.6,1633.1,165.1,3534.0,333.8,3.9,1575.3,3593.4,227.6,52.2,19.4
