time,f1,b1,f2,b2,f3,b3,f1p,f2p,f3p,f0,intensity,harmonicity
0.025000,836.2,80.5,1752.8,218.3,3273.7,697.4,842.9,1683.8,3296.4,169,73.9,8.1
0.027000,838.8,80.1,1743.3,218.2,3312.0,715.5,843.5,1683.8,3293.4,168.7,73.9,8.6
0.029000,837.8,82.7,1731.1,214.0,3346.8,714.6,844.4,1683.6,3288.4,168.4,73.8,8.8
0.031000,835.0,88.1,1716.0,218.5,3353.3,727.1,845.8,1683.4,3281.4,168.1,73.7,8.7
0.033000,832.7,93.0,1698.0,227.7,3316.0,782.7,847.4,1683.2,3272.5,167.8,73.6,8.7
0.035000,832.2,96.0,1680.8,231.8,3227.4,838.3,849.4,1682.9,3261.9,167.4,73.4,8.9
0.037000,834.1,99.0,1668.7,229.1,3127.1,820.7,851.8,1682.5,3249.6,167.1,73.2,9.5
0.039000,838.7,102.9,1662.7,220.3,3053.2,750.4,854.4,1682.1,3235.7,166.7,73,10.3
0.041000,846.2,108.2,1660.5,208.4,3017.3,646.8,857.4,1681.7,3220.3,166.3,72.7,11.2
0.043000,854.7,117.0,1658.8,202.9,3019.7,550.5,860.6,1681.1,3203.7,165.9,72.5,12
0.045000,861.6,128.2,1655.8,208.1,3040.6,484.7,864.1,1680.6,3186,165.5,72.2,12.7
0.047000,866.3,137.4,1651.9,218.4,3060.8,441.7,867.8,1679.9,3167.3,165.2,72,13.3
0.049000,870.5,143.5,1648.1,231.0,3081.4,420.1,871.7,1679.2,3147.8,164.8,71.9,13.9
0.051000,874.7,148.3,1645.3,247.6,3110.4,415.7,875.8,1678.5,3127.8,164.4,71.7,14.3
0.053000,878.4,152.7,1645.2,264.8,3140.3,414.9,880,1677.6,3107.4,164,71.5,14.7
0.055000,881.7,157.3,1649.3,276.6,3159.7,410.2,884.3,1676.8,3086.7,163.6,71.4,14.9
0.057000,884.9,161.6,1659.0,279.7,3167.9,405.9,888.7,1675.8,3066.1,163.3,71.2,15
0.059000,889.3,162.7,1672.1,268.2,3167.4,425.3,893.2,1674.8,3045.7,162.9,71.1,15
0.061000,896.5,157.9,1681.0,242.1,3156.9,475.6,897.7,1673.8,3025.6,162.6,70.9,14.8
0.063000,905.2,150.6,1684.5,216.5,3134.1,507.1,902.2,1672.6,3006.1,162.3,70.7,14.5
0.065000,914.3,148.3,1684.1,206.1,3110.2,502.3,906.6,1671.4,2987.4,162,70.5,13.8
0.067000,923.5,159.5,1679.0,224.5,3089.4,490.1,911,1670.2,2969.7,161.7,70.3,12.8
0.069000,932.3,189.4,1668.6,279.5,3058.6,492.2,915.2,1668.9,2953,161.4,70.1,11.5
0.071000,941.1,233.0,1657.2,343.0,3013.7,517.1,919.4,1667.5,2937.6,161.2,69.9,9.9
0.073000,953.3,279.7,1652.0,353.2,2963.1,548.0,923.4,1666,2923.6,160.9,69.7,8.5
0.075000,971.8,326.7,1653.1,312.6,2916.2,558.7,927.2,1664.5,2911.1,160.7,69.6,7.3
0.077000,987.9,366.9,1656.1,259.6,2883.8,545.0,930.9,1663,2900.3,160.5,69.4,6.2
0.079000,988.3,389.6,1657.6,204.7,2869.4,529.6,934.3,1661.4,2891.2,160.4,69.3,5.2
0.081000,971.0,389.9,1656.6,152.8,2868.9,545.9,937.5,1659.7,2883.9,160.2,69.1,4.4
0.083000,944.0,370.6,1655.1,116.7,2881.5,632.8,940.4,1658,2878.5,160.1,68.9,3.9
0.085000,926.3,331.0,1655.8,103.4,2907.5,790.1,943.1,1656.2,2875,160,68.7,3.8
0.087000,930.3,269.9,1658.2,111.3,2930.9,888.7,945.4,1654.3,2873.4,159.9,68.4,4.3
0.089000,941.1,217.2,1660.5,144.6,2948.3,869.8,947.5,1652.5,2873.7,159.8,68.1,5.3
0.091000,950.2,189.9,1663.1,206.5,2949.3,781.7,949.4,1650.6,2876,159.7,67.8,6.5
0.093000,956.4,180.3,1668.7,271.5,2936.8,663.7,950.9,1648.6,2880.1,159.7,67.5,8
0.095000,960.0,178.5,1676.2,301.2,2925.4,562.5,952.1,1646.6,2886.1,159.6,67.2,9.5
0.097000,963.2,183.4,1677.5,307.2,2917.4,501.6,953.1,1644.6,2893.8,159.6,67,11.4
0.099000,967.9,198.0,1666.9,320.7,2908.9,477.0,953.8,1642.5,2903.2,159.5,66.8,13.7
0.101000,972.1,223.8,1645.2,348.1,2897.0,474.3,954.2,1640.5,2914.2,159.5,66.6,16
0.103000,970.9,257.2,1618.3,367.7,2876.0,475.3,954.3,1638.4,2926.6,159.5,66.4,18
0.105000,960.4,286.4,1596.3,355.4,2847.8,462.7,954.2,1636.3,2940.4,159.4,66.2,19.3
0.107000,946.6,299.2,1591.2,323.5,2849.3,444.8,953.9,1634.2,2955.4,159.4,66.1,19.6
0.109000,937.0,312.5,1602.4,305.0,2929.8,441.1,953.4,1632.1,2971.3,159.4,65.9,19.2
0.111000,926.7,341.4,1616.3,298.8,3054.6,378.5,952.7,1630,2988.2,159.3,65.7,18.4
0.113000,912.6,378.4,1623.9,291.5,3116.1,278.8,951.9,1628,3005.7,159.3,65.5,17.6
0.115000,901.3,415.4,1628.9,287.4,3127.6,240.7,950.9,1625.9,3023.8,159.2,65.3,17.2
0.117000,898.6,448.1,1636.6,293.1,3118.8,257.9,949.9,1623.9,3042.3,159.2,65.1,17.1
0.119000,902.8,458.9,1643.2,304.0,3091.6,326.5,948.8,1622,3061,159.2,65,17.2
0.121000,910.2,426.7,1642.2,312.4,3045.0,420.5,947.7,1620,3079.6,159.1,64.9,17.4
0.123000,918.4,374.3,1630.7,327.3,3019.3,478.9,946.6,1618.1,3098.1,159,64.9,17.5
0.125000,926.1,334.8,1607.9,352.9,3041.4,486.1,945.6,1616.3,3116.3,159,64.9,17.5
0.127000,933.4,315.6,1582.4,369.6,3069.1,421.5,944.6,1614.6,3134,158.9,64.8,17.3
0.129000,941.6,313.9,1573.5,362.1,3075.4,323.4,943.8,1612.9,3151.1,158.9,64.7,17
0.131000,950.4,321.9,1583.9,327.5,3076.8,253.8,943.2,1611.3,3167.4,158.8,64.6,16.7
0.133000,953.9,329.9,1601.9,270.6,3084.9,224.9,942.7,1609.8,3182.8,158.7,64.5,16.3
0.135000,946.7,332.6,1621.7,204.6,3099.8,230.6,942.6,1608.4,3197.2,158.6,64.4,15.9
0.137000,930.8,336.4,1639.6,152.0,3120.6,272.7,942.7,1607.1,3210.4,158.5,64.3,15.5
0.139000,915.4,345.2,1652.8,122.9,3148.3,349.1,943.1,1605.9,3222.4,158.5,64.3,15.1
0.141000,908.5,355.2,1659.9,112.0,3183.5,426.5,943.9,1604.8,3233.1,158.4,64.2,14.6
0.143000,912.4,362.4,1658.4,112.8,3221.8,473.8,945.1,1603.9,3242.5,158.3,64.1,14.2
0.145000,926.9,365.3,1648.3,121.5,3250.7,501.7,946.7,1603.1,3250.5,158.1,64,14
0.147000,951.1,363.6,1634.9,136.7,3263.4,531.7,948.7,1602.4,3257.1,158,63.9,14.1
0.149000,982.6,355.0,1625.4,158.9,3261.2,576.7,951.3,1601.8,3262.3,157.9,63.7,14.3
0.151000,1015.2,338.1,1623.7,185.5,3248.6,617.1,954.4,1601.4,3266.1,157.7,63.6,14.6
0.153000,1039.2,313.1,1628.1,206.8,3224.8,612.6,958,1601.1,3268.5,157.6,63.5,14.9
0.155000,1045.8,284.6,1628.8,216.4,3194.6,569.1,962.2,1601,3269.6,157.4,63.3,15.2
0.157000,1035.9,261.5,1616.3,215.4,3167.0,502.2,967,1601.1,3269.4,157.2,63.1,15.5
0.159000,1019.1,248.3,1590.4,200.6,3147.6,422.4,972.3,1601.3,3268.1,157,63,15.9
0.161000,1004.6,247.6,1562.5,177.4,3151.0,346.3,978.3,1601.6,3265.7,156.7,62.9,16.2
0.163000,995.9,259.3,1542.8,162.0,3177.4,292.8,984.8,1602.1,3262.3,156.5,62.7,16.5
0.165000,991.2,277.2,1534.2,159.6,3214.7,265.5,992,1602.7,3258.1,156.2,62.6,16.7
0.167000,985.4,295.1,1537.3,164.8,3249.8,245.8,999.8,1603.5,3253.2,155.9,62.5,16.7
0.169000,975.5,314.2,1551.1,169.8,3275.2,218.3,1008.2,1604.5,3247.7,155.5,62.4,16.6
0.171000,967.8,337.9,1567.9,169.5,3292.0,195.4,1017.2,1605.6,3241.8,155.1,62.2,16.3
0.173000,975.1,377.7,1578.8,172.8,3305.5,190.1,1026.8,1606.8,3235.6,154.7,62,16.1
0.175000,999.4,433.3,1582.1,190.5,3317.8,202.9,1037,1608.2,3229.3,154.3,61.8,15.8
0.177000,1027.9,485.5,1580.3,220.5,3327.2,226.7,1047.7,1609.7,3223.1,153.9,61.6,15.3
0.179000,1047.6,526.9,1575.9,253.3,3334.3,258.5,1058.9,1611.3,3217.1,153.4,61.3,14.8
0.181000,1055.5,568.4,1574.1,279.4,3344.3,298.8,1070.7,1613.1,3211.4,152.9,61,14.3
0.183000,1061.8,589.9,1584.2,289.2,3358.1,343.1,1082.8,1614.9,3206.3,152.3,60.7,13.8
0.185000,1093.4,530.1,1605.3,288.8,3359.8,385.6,1095.5,1616.9,3201.8,151.7,60.4,13.4
0.187000,1139.1,419.5,1626.1,286.8,3337.9,417.2,1108.5,1618.9,3198.2,151.2,60.2,13.3
0.189000,1167.4,338.8,1643.9,267.1,3309.6,414.8,1121.8,1621,3195.5,150.6,60,13.3
0.191000,1181.4,297.8,1661.6,227.3,3294.4,379.3,1135.4,1623.2,3193.9,149.9,59.8,13.4
0.193000,1192.9,289.2,1678.1,184.8,3289.7,343.3,1149.3,1625.5,3193.5,149.3,59.6,13.5
0.195000,1209.6,309.1,1687.0,156.7,3284.7,334.0,1163.4,1627.7,3194.3,148.6,59.4,13.5
0.197000,1228.8,334.8,1687.6,144.4,3272.5,350.7,1177.6,1630.1,3196.5,148,59.1,16.7
0.199000,1236.2,340.6,1685.9,139.4,3250.0,366.0,1191.9,1632.4,3200.2,147.3,58.9,23.4
0.201000,1225.6,331.7,1685.9,135.8,3221.4,355.4,1206.2,1634.7,3205.2,146.6,58.7,28.3
0.203000,1203.9,324.7,1686.3,133.7,3199.7,330.1,1220.4,1637,3211.8,146,58.5,26.4
0.205000,1177.5,319.9,1684.6,136.9,3199.3,307.5,1234.6,1639.3,3219.8,145.3,58.3,12.7
0.207000,1154.8,305.7,1678.5,153.0,3222.6,283.0,1248.6,1641.6,3229.4,144.7,58,-19.7
0.209000,1151.0,294.4,1663.2,190.4,3248.0,257.1,1262.4,1643.8,3240.3,144,57.8,-67.4
0.211000,1175.0,319.7,1634.3,239.7,3259.5,249.9,1275.9,1645.9,3252.7,143.4,57.5,-120.1
0.213000,1231.5,401.9,1598.4,275.2,3262.7,277.0,1289,1647.9,3266.4,142.7,57.2,-167.7
0.215000,1337.2,560.0,1552.5,280.3,3266.4,342.6,1301.7,1649.9,3281.2,142.1,57,-200
0.217000,1448.3,772.1,1529.3,210.4,3277.2,415.8,1314,1651.7,3297.2,141.5,56.7,-213.6
0.219000,1480.1,732.7,1554.1,197.9,3293.4,420.8,1325.7,1653.3,3314.2,141,56.4,-215.3
0.221000,1405.2,526.0,1621.6,195.1,3306.6,353.9,1336.8,1654.9,3332,140.4,56.1,-210.2
0.223000,1341.3,418.4,1662.6,133.8,3323.1,286.2,1347.3,1656.2,3350.5,139.9,55.8,-203.4
0.225000,1315.8,374.3,1674.9,100.6,3346.0,250.2,1357.1,1657.4,3369.5,139.4,55.5,-200
0.227000,1303.5,368.8,1678.3,91.6,3374.4,250.5,1366.1,1658.5,3388.7,138.9,55.1,-200
0.229000,1295.9,383.4,1681.7,103.9,3412.3,277.8,1374.3,1659.3,3408.1,138.5,54.8,-200
0.231000,1299.5,395.9,1690.2,143.6,3457.1,314.7,1381.7,1659.9,3427.4,138,54.4,-200
0.233000,1315.9,387.0,1704.6,211.8,3491.6,348.5,1388.2,1660.3,3446.3,137.6,54.1,-200
0.235000,1339.8,364.4,1716.9,286.7,3501.5,407.5,1393.7,1660.4,3464.7,137.2,53.9,-200
0.237000,1375.4,354.7,1714.3,337.7,3480.0,503.5,1398.3,1660.3,3482.3,136.9,53.6,-200
0.239000,1421.9,358.1,1701.3,361.3,3439.9,555.9,1401.9,1660,3498.9,136.6,53.3,-200
0.241000,1457.4,363.7,1689.0,368.1,3414.4,545.9,1404.6,1659.4,3514.3,136.3,53,-200
0.243000,1456.1,374.7,1680.1,355.8,3389.9,522.0,1406.2,1658.6,3528.3,136,52.6,-200
0.245000,1431.6,372.0,1665.9,347.1,3357.0,516.5,1406.7,1657.5,3540.6,135.7,52.2,-200
0.247000,1420.8,369.6,1634.2,330.9,3327.7,509.2,1406.2,1656.2,3551.1,135.5,51.9,-200
0.249000,1411.7,382.8,1612.6,252.4,3314.7,460.0,1404.6,1654.6,3559.5,135.3,51.5,-200
0.251000,1401.4,364.8,1616.4,171.3,3315.4,378.3,1402,1652.7,3565.7,135.1,51.2,-200
0.253000,1404.7,333.0,1622.4,119.5,3322.6,291.5,1398.4,1650.6,3569.5,135,50.9,-200
0.255000,1405.4,319.9,1624.5,91.4,3333.4,226.9,1393.7,1648.2,3570.7,134.8,50.5,-200
0.257000,1391.0,329.6,1625.3,77.4,3349.4,188.9,1388,1645.5,3569.3,134.7,50.1,-200
0.259000,1373.7,347.4,1628.3,75.6,3367.3,173.9,1381.3,1642.7,3565,134.6,49.6,-200
0.261000,1372.1,368.8,1634.6,83.5,3383.4,181.1,1373.6,1639.5,3557.9,134.5,49.1,-200
0.263000,1386.9,408.3,1640.3,95.5,3403.0,216.1,1365,1636.2,3547.9,134.5,48.6,-200
0.265000,1401.6,473.1,1642.2,107.0,3438.1,294.2,1355.5,1632.6,3534.9,134.4,48.1,-200
0.267000,1392.3,554.1,1643.7,118.2,3503.4,423.3,1345.1,1628.8,3518.9,0,47.6,-200
0.269000,1344.8,625.1,1647.4,128.6,3586.2,544.3,1334,1624.9,3499.9,0,47.2,-200
0.271000,1277.6,648.8,1646.1,131.0,3613.2,558.4,1322.1,1620.7,3477.9,0,46.8,-200
0.273000,1235.3,644.9,1631.5,124.7,3603.4,451.0,1309.5,1616.4,3453,0,46.5,-200
0.275000,1231.1,626.5,1608.8,117.2,3596.6,332.4,1296.2,1611.9,3425.4,0,46.1,-200
0.277000,1266.2,541.9,1586.6,120.4,3596.2,276.6,1282.4,1607.3,3395,0,45.7,-200
0.279000,1304.7,402.2,1570.7,141.7,3602.1,305.0,1268,1602.5,3362.1,0,45.4,-200
0.281000,1316.8,301.0,1556.6,165.2,3562.1,502.5,1253.2,1597.7,3326.8,0,44.9,-200
0.283000,1309.9,273.3,1541.3,165.5,3502.3,552.6,1238.1,1592.8,3289.2,0,44.5,-200
0.285000,1292.3,276.2,1541.4,143.3,3501.1,629.7,1222.6,1587.9,3249.7,0,44.1,-200
0.287000,1267.9,291.0,1557.8,120.5,3556.4,710.9,1207,1582.9,3208.3,0,43.8,-200
0.289000,1221.5,332.4,1575.3,100.3,3606.4,851.6,1191.1,1577.8,3165.5,0,43.5,-200
0.291000,1147.6,357.0,1584.3,77.8,3563.7,1200.5,1175.3,1572.8,3121.3,0,43.3,-200
0.293000,1114.6,337.5,1583.1,58.7,3370.0,1447.4,1159.4,1567.9,3076.2,0,43.3,-200
0.295000,1139.9,326.5,1578.8,50.8,3257.1,1275.5,1143.6,1562.9,3030.3,0,43.3,-200
0.297000,1168.3,310.6,1576.5,50.2,3215.0,1172.4,1128,1558.1,2984,0,43.4,-200
0.299000,1156.3,294.5,1574.9,52.3,3115.9,1253.2,1112.6,1553.3,2937.7,0,43.3,-200
0.301000,1106.9,273.7,1572.2,55.8,2903.1,1347.2,1097.6,1548.7,2891.5,0,42.9,-200
0.303000,1049.6,236.6,1568.2,59.5,2685.4,1191.6,1082.9,1544.1,2845.9,0,42.5,-200
0.305000,1006.6,198.3,1560.6,60.9,2576.5,981.2,1068.7,1539.8,2801.1,0,42.1,-200
0.307000,979.0,166.7,1548.1,55.8,2505.4,830.3,1055.1,1535.6,2757.4,0,41.8,-200
0.309000,961.2,141.2,1537.2,46.5,2448.2,711.7,1042.1,1531.6,2715.2,0,41.6,-200
0.311000,950.6,128.4,1532.7,39.8,2415.4,630.1,1029.8,1527.8,2674.8,0,41.3,-200
0.313000,946.1,137.2,1533.3,39.1,2411.4,619.7,1018.2,1524.3,2636.4,0,41,-200
0.315000,948.0,179.1,1536.5,45.5,2438.7,732.7,1007.4,1521,2600.3,0,40.5,-200
0.317000,959.0,263.2,1540.7,58.2,2519.4,1057.2,997.4,1518,2566.8,0,39.9,-200
0.319000,975.7,340.6,1544.7,68.9,2748.8,1693.6,988.4,1515.2,2536.2,0,39.2,-200
0.321000,971.4,324.9,1546.9,68.3,2999.2,2242.5,980.3,1512.8,2508.5,0,38.6,-200
0.323000,955.1,286.5,1544.3,67.5,2617.1,1910.2,973.2,1510.6,2484.2,0,38.2,-200
0.325000,956.6,298.8,1533.2,73.2,2400.4,1361.0,967.2,1508.8,2463.3,0,38.1,-200
0.327000,986.7,390.1,1512.6,84.8,2312.6,1174.0,962.2,1507.3,2445.9,0,38.1,-200
0.329000,1043.0,572.6,1484.0,96.5,2246.6,1226.2,958.2,1506.1,2432.3,0,38.2,-200
0.331000,1088.2,812.0,1456.1,90.5,2164.3,1343.3,955.4,1505.2,2422.5,0,38.3,-200
0.333000,1044.7,949.5,1443.0,71.7,2123.9,1351.9,953.7,1504.7,2416.6,0,38.2,-200
0.335000,940.1,878.1,1441.7,58.6,2154.6,1293.8,953.2,1504.6,2414.6,0,38,-200
