time,f1,b1,f2,b2,f3,b3,f1p,f2p,f3p,f0,intensity,harmonicity
0.025000,741.6,129.0,1502.9,427.0,3047.4,456.6,777.1,1551.4,3130.1,219.2,69.2,15.9
0.027000,753.5,124.5,1519.2,450.5,3039.7,453.4,778.5,1553.4,3132.5,219.4,69.1,15.8
0.029000,768.4,117.7,1548.8,470.5,3059.2,431.2,781,1556.6,3136.4,219.6,68.9,15.5
0.031000,784.0,108.9,1587.3,455.5,3099.9,390.2,784.3,1561,3141.6,219.9,68.6,15.1
0.033000,797.0,104.2,1613.3,388.2,3145.6,351.3,788.5,1566.3,3147.9,220.2,68.3,14.8
0.035000,807.2,107.6,1616.6,295.7,3192.3,327.2,793.6,1572.5,3155.2,220.5,68.1,14.6
0.037000,815.3,115.1,1608.8,222.4,3235.7,313.9,799.3,1579.3,3163,220.8,67.8,14.7
0.039000,822.4,122.5,1599.8,173.4,3269.2,300.4,805.6,1586.6,3171.2,221.1,67.6,15
0.041000,828.7,126.9,1592.7,145.3,3280.0,285.0,812.5,1594.1,3179.4,221.5,67.5,15.3
0.043000,834.1,126.1,1588.3,132.0,3265.5,269.1,819.7,1601.5,3187.2,221.9,67.5,15.7
0.045000,838.9,119.4,1587.5,130.0,3238.9,256.2,827.3,1608.8,3194.3,222.3,67.5,16
0.047000,842.7,111.1,1590.7,139.8,3219.9,254.0,834.9,1615.7,3200.6,222.7,67.5,16.4
0.049000,846.2,104.1,1597.7,162.7,3209.4,254.5,842.6,1622,3205.6,223.1,67.5,16.7
0.051000,850.1,99.2,1608.2,199.5,3201.9,240.8,850.1,1627.7,3209.3,223.6,67.5,17.1
0.053000,854.6,96.5,1622.7,248.4,3197.1,216.6,857.4,1632.6,3211.5,224,67.5,17.4
0.055000,859.6,95.2,1639.5,283.9,3195.0,197.8,864.3,1636.8,3211.9,224.5,67.5,17.5
0.057000,864.4,94.7,1649.0,263.9,3192.8,190.8,870.7,1640.1,3210.7,225,67.4,17.6
0.059000,869.8,95.3,1650.7,213.7,3188.5,192.3,876.5,1642.8,3207.8,225.5,67.3,17.5
0.061000,875.6,99.1,1650.9,173.4,3182.6,192.3,881.5,1644.7,3203.3,226.1,67.1,17.3
0.063000,881.1,107.5,1652.1,152.3,3175.6,182.8,885.8,1646,3197.3,226.6,67,17.1
0.065000,885.5,118.7,1653.2,144.9,3167.0,170.7,889.1,1646.9,3190.1,227.1,66.8,16.9
0.067000,888.4,126.5,1653.0,144.0,3158.2,163.3,891.5,1647.5,3181.7,227.7,66.7,16.7
0.069000,890.9,128.6,1652.0,142.6,3149.2,159.9,893,1648,3172.5,228.3,66.5,16.5
0.071000,893.1,126.5,1652.2,137.3,3140.5,159.9,893.5,1648.5,3162.8,228.9,66.4,16.3
0.073000,894.5,122.1,1653.9,127.7,3132.2,163.4,893,1649.2,3152.9,229.5,66.3,16.1
0.075000,894.1,116.7,1656.0,116.0,3122.8,173.5,891.6,1650.2,3142.9,230.1,66.1,15.8
0.077000,891.6,113.1,1656.6,108.2,3109.6,196.2,889.4,1651.7,3133.4,230.7,66,15.5
0.079000,888.0,115.1,1655.8,107.9,3094.3,239.4,886.3,1653.7,3124.4,231.3,65.8,15.1
0.081000,883.4,124.2,1655.2,114.6,3094.8,296.4,882.6,1656.3,3116.3,232,65.6,14.7
0.083000,876.2,138.6,1657.0,125.1,3121.8,342.4,878.4,1659.5,3109.2,232.6,65.4,14.4
0.085000,865.1,156.1,1663.0,142.0,3152.2,360.6,873.7,1663.3,3103.4,233.3,65.3,14.1
0.087000,854.5,167.9,1672.1,166.3,3157.7,345.7,868.7,1667.5,3098.9,234,65.1,13.9
0.089000,849.2,166.5,1680.1,195.1,3145.9,304.2,863.6,1672.2,3095.8,234.6,65,13.6
0.091000,849.2,158.0,1682.1,229.3,3138.1,256.5,858.5,1677.2,3094.1,235.3,64.8,13.4
0.093000,852.1,151.4,1676.3,274.6,3137.1,220.9,853.6,1682.2,3093.8,236,64.7,13.3
0.095000,856.7,146.2,1666.1,333.5,3134.8,200.4,849,1687.2,3094.9,236.7,64.5,13.6
0.097000,861.3,138.9,1659.8,387.3,3127.3,193.6,844.9,1691.8,3097.2,237.4,64.3,14.2
0.099000,863.0,128.8,1663.4,409.9,3114.8,198.2,841.4,1695.8,3100.6,238.1,64.2,15.1
0.101000,859.9,120.3,1676.0,387.8,3096.9,211.5,838.6,1699.1,3104.9,238.8,64,16.1
0.103000,853.2,115.8,1690.4,347.0,3076.9,216.1,836.6,1701.4,3110,239.5,63.8,17.1
0.105000,844.6,113.4,1702.6,314.2,3066.1,198.3,835.4,1702.6,3115.6,240.2,63.6,17.9
0.107000,836.4,112.1,1713.0,302.9,3067.0,183.5,835.1,1702.4,3121.6,241,63.4,18.4
0.109000,829.0,113.2,1723.5,309.9,3071.6,195.0,835.8,1700.9,3127.8,241.7,63.2,18.9
0.111000,824.6,119.2,1732.4,324.7,3077.4,247.2,837.3,1697.9,3134,242.4,63,19.2
0.113000,826.0,133.3,1732.6,337.7,3091.8,346.0,839.7,1693.3,3140.1,243.1,62.8,19.3
0.115000,833.9,158.1,1720.7,349.1,3135.0,454.0,842.8,1687.3,3146.1,243.8,62.7,19.1
0.117000,843.9,190.7,1701.7,363.6,3192.7,487.3,846.7,1680,3151.7,244.5,62.5,18.4
0.119000,851.7,229.4,1679.0,377.3,3218.5,482.0,851.1,1671.3,3157.1,245.1,62.4,17.2
0.121000,855.5,271.2,1657.0,368.5,3201.8,481.5,856,1661.7,3162.2,245.8,62.2,15.8
0.123000,856.9,321.0,1642.9,333.5,3174.6,459.5,861.2,1651.2,3167,246.4,62.1,14.6
0.125000,859.1,384.2,1635.4,285.2,3161.9,410.7,866.6,1640.2,3171.6,247,61.8,13.7
0.127000,865.3,455.6,1624.6,232.1,3161.1,352.1,871.9,1628.9,3176.1,247.6,61.6,13.4
0.129000,875.6,515.2,1605.6,183.1,3172.6,306.3,877.1,1617.6,3180.6,248.2,61.3,13.3
0.131000,886.4,553.3,1584.8,138.5,3193.6,269.8,882.1,1606.6,3185.2,248.7,61.1,13.4
0.133000,894.6,569.9,1570.9,105.8,3211.6,241.4,886.5,1596.2,3190,249.2,60.8,13.7
0.135000,899.5,583.5,1563.5,88.4,3217.3,227.2,890.5,1586.7,3195.2,249.7,60.6,14
0.137000,900.5,602.1,1559.4,84.6,3210.1,232.0,893.7,1578.4,3200.8,250.1,60.3,14.6
0.139000,898.3,623.4,1556.0,89.0,3197.0,252.1,896.3,1571.4,3207,250.5,60.1,15.5
0.141000,892.9,641.3,1553.3,95.3,3190.9,269.5,898,1565.9,3213.7,250.9,59.8,16.4
0.143000,886.0,653.3,1553.0,95.7,3205.1,258.3,898.9,1562,3221.2,251.2,59.5,17.1
0.145000,881.9,662.8,1555.9,88.5,3232.2,227.4,899,1559.7,3229.3,251.5,59.2,17.5
0.147000,883.7,672.0,1560.4,80.9,3255.6,210.1,898.4,1559.1,3238,251.8,58.9,17.4
0.149000,886.3,686.9,1564.7,77.2,3273.6,214.6,896.9,1560.1,3247.2,252,58.6,17.1
0.151000,882.3,714.2,1568.5,79.8,3285.6,237.6,894.9,1562.4,3257,252.2,58.2,16.5
0.153000,876.1,737.6,1575.0,91.3,3289.5,261.5,892.3,1566.1,3267,252.3,57.8,15.9
0.155000,885.6,714.0,1591.9,113.8,3287.1,262.5,889.2,1570.8,3277.1,252.4,57.3,15.5
0.157000,910.0,636.8,1619.1,134.1,3280.0,243.9,885.8,1576.3,3287.2,252.5,56.8,15.2
0.159000,932.2,557.0,1641.6,139.3,3264.4,228.6,882.3,1582.3,3297,252.6,56.3,14.9
0.161000,943.0,515.9,1647.9,138.2,3245.0,232.9,878.8,1588.5,3306.3,252.6,55.8,14.7
0.163000,939.3,527.8,1638.9,143.0,3238.6,259.0,875.4,1594.6,3314.9,252.6,55.3,14.5
0.165000,920.4,589.5,1615.0,150.7,3258.8,288.6,872.2,1600.3,3322.7,252.6,54.7,14.4
0.167000,886.3,670.2,1585.1,147.5,3298.8,295.3,869.5,1605.4,3329.3,252.6,54.1,17.8
0.169000,843.9,724.1,1564.7,132.1,3344.9,280.0,867.2,1609.7,3334.6,252.6,53.4,24.7
0.171000,815.8,729.7,1562.1,117.7,3383.1,253.1,865.5,1612.8,3338.5,252.6,52.6,29.8
0.173000,806.0,740.2,1572.5,115.2,3402.8,221.8,864.5,1614.8,3340.9,252.5,51.7,28.2
0.175000,808.6,790.6,1593.8,128.5,3403.4,183.8,864.1,1615.5,3341.7,252.5,50.5,14.5
