time,f1,b1,f2,b2,f3,b3,f1p,f2p,f3p,f0,intensity,harmonicity
0.025000,884.9,81.4,1500.6,285.5,3253.0,372.1,853,1570.4,3291.1,76.7,76.6,2.6
0.027000,888.3,86.6,1501.4,334.7,3266.6,340.5,853.6,1569.7,3291.4,76.7,76.5,2.4
0.029000,888.1,92.8,1501.3,385.4,3272.3,311.6,854.7,1568.5,3291.8,76.7,76.4,2
0.031000,883.7,93.4,1511.4,386.5,3265.6,296.3,856.2,1566.9,3292.3,76.7,76.2,1.5
0.033000,876.7,88.5,1534.0,328.0,3254.2,298.1,858,1564.7,3293,76.8,76,1.1
0.035000,871.8,84.0,1556.1,264.9,3249.4,323.0,860.1,1562.2,3293.8,76.9,75.8,0.9
0.037000,870.7,83.2,1570.8,231.7,3264.2,371.5,862.5,1559.3,3294.8,77.1,75.5,0.9
0.039000,870.9,85.2,1576.6,226.6,3290.4,407.4,865.1,1556,3295.8,77.3,75.3,0.9
0.041000,869.7,88.7,1574.4,236.3,3301.5,400.4,867.8,1552.3,3296.9,77.5,75.1,1.1
0.043000,868.7,92.3,1568.2,247.8,3299.9,372.3,870.6,1548.4,3298.1,77.9,74.9,1.4
0.045000,869.2,95.5,1563.1,249.0,3301.2,348.4,873.4,1544.3,3299.3,78.3,74.6,1.7
0.047000,869.9,101.2,1559.1,237.5,3310.1,339.5,876,1539.9,3300.5,78.8,74.2,2.2
0.049000,868.6,112.7,1554.3,223.9,3325.3,354.9,878.5,1535.3,3301.7,79.4,73.8,2.8
0.051000,866.2,130.2,1552.3,220.1,3347.1,389.8,880.7,1530.7,3302.9,80.1,73.3,3.5
0.053000,864.9,147.3,1555.5,225.5,3365.1,417.8,882.5,1526,3304.1,81,72.9,4.1
0.055000,864.4,155.6,1559.3,228.3,3367.1,413.4,883.9,1521.3,3305.2,82,72.6,4.7
0.057000,866.9,156.2,1561.5,226.8,3360.7,372.9,884.8,1516.6,3306.2,83.1,72.3,5
0.059000,871.4,156.3,1560.7,230.6,3352.1,335.1,885.1,1512,3307.1,84.4,72.1,5.3
0.061000,875.4,162.4,1555.4,246.7,3338.9,313.0,884.6,1507.5,3307.9,85.8,71.8,5.5
0.063000,878.8,174.8,1547.6,269.5,3324.2,299.0,883.5,1503.2,3308.5,87.4,71.5,5.7
0.065000,881.5,186.7,1542.1,278.7,3313.3,290.5,881.5,1499.2,3309.1,89.2,71.2,6.1
0.067000,880.0,196.3,1537.6,265.8,3304.9,294.6,878.6,1495.4,3309.5,91.1,70.9,6.6
0.069000,870.9,206.3,1528.8,246.6,3295.8,319.0,874.8,1491.9,3309.7,93.2,70.7,7.3
0.071000,855.1,215.3,1513.4,235.0,3287.9,371.4,870.1,1488.7,3309.8,95.5,70.4,8
0.073000,836.3,221.8,1490.4,239.0,3287.5,461.8,864.4,1485.9,3309.7,97.9,70.1,8.5
0.075000,818.3,226.5,1458.8,257.1,3299.4,570.7,857.7,1483.6,3309.5,100.4,69.9,8.6
0.077000,803.8,225.2,1425.2,270.3,3314.5,607.6,850,1481.6,3309.2,103.1,69.6,8.1
0.079000,792.2,214.8,1413.7,254.1,3320.3,531.8,841.3,1480.1,3308.7,105.9,69.3,7
0.081000,779.9,202.4,1429.4,213.5,3318.2,421.5,831.7,1479,3308.1,108.7,69,5.7
0.083000,767.7,199.8,1451.2,176.4,3310.2,331.9,821.1,1478.4,3307.5,111.7,68.8,4.8
0.085000,760.6,209.7,1463.4,160.5,3297.8,277.9,809.7,1478.3,3306.8,114.6,68.5,4.4
0.087000,759.7,231.1,1463.4,164.5,3286.0,247.6,797.4,1478.7,3306,0,68.3,4.9
0.089000,763.0,259.8,1455.3,180.4,3281.9,227.4,784.4,1479.5,3305.2,120.6,68,5.9
0.091000,768.3,294.5,1447.6,204.1,3285.6,215.3,770.7,1480.8,3304.4,123.6,67.7,7.2
0.093000,769.8,341.9,1446.3,240.8,3294.0,226.0,756.3,1482.5,3303.7,126.5,67.3,8.4
0.095000,762.2,424.8,1452.3,313.3,3307.1,271.6,741.5,1484.6,3303,129.3,66.9,9.5
0.097000,753.5,555.9,1465.1,453.4,3322.4,337.4,726.3,1487.2,3302.4,132,66.5,10.2
0.099000,765.6,720.5,1485.2,694.1,3332.1,391.9,710.9,1490.1,3301.9,134.6,66.1,10.9
0.101000,787.0,824.6,1525.4,888.2,3324.9,405.4,695.2,1493.4,3301.7,137.1,65.8,11.5
0.103000,734.3,779.0,1564.3,698.0,3301.8,372.5,679.5,1497,3301.6,139.4,65.6,12
0.105000,679.5,649.6,1587.1,425.1,3281.5,310.6,663.9,1500.8,3301.7,141.5,65.4,12.3
0.107000,657.5,548.5,1594.4,268.5,3274.3,250.4,648.6,1504.9,3302.1,143.5,65.3,12.4
0.109000,660.7,487.7,1589.3,213.1,3277.2,219.9,633.5,1509.2,3302.7,145.3,65.2,12.3
0.111000,677.4,458.8,1574.4,218.6,3287.5,221.1,619,1513.7,3303.6,146.9,65.1,12.1
0.113000,693.8,471.1,1548.1,278.2,3305.9,254.5,605,1518.2,3304.9,148.3,65,11.9
0.115000,700.3,531.7,1500.2,393.1,3332.1,337.6,591.8,1522.9,3306.5,149.5,64.9,11.8
0.117000,691.0,650.9,1422.7,526.1,3349.8,459.1,579.4,1527.5,3308.4,150.5,64.7,11.7
0.119000,647.7,724.6,1389.0,537.2,3325.1,496.9,568,1532.2,3310.7,151.3,64.5,11.6
0.121000,586.5,651.0,1449.5,399.9,3290.1,406.4,557.7,1536.8,3313.4,152,64.3,11.5
0.123000,541.4,584.8,1507.9,235.4,3269.8,289.3,548.5,1541.3,3316.4,152.6,64.1,11.4
0.125000,516.1,582.8,1532.2,140.0,3264.1,205.2,540.6,1545.7,3319.8,152.9,63.9,11.2
0.127000,509.8,613.8,1538.4,105.3,3268.0,165.9,534,1549.9,3323.5,153.2,63.8,11
0.129000,510.4,659.2,1537.7,100.9,3274.1,159.4,528.9,1553.9,3327.6,153.3,63.5,10.6
0.131000,508.8,714.4,1532.9,119.2,3279.0,183.1,525.2,1557.6,3331.9,153.3,63.3,10.2
0.133000,498.6,794.3,1525.8,163.9,3286.1,237.3,523,1561.1,3336.6,153.3,63.1,10
0.135000,466.9,915.9,1529.7,224.0,3310.9,308.4,522.4,1564.3,3341.6,153.1,62.9,9.9
0.137000,408.2,1005.9,1564.7,217.8,3358.5,340.7,523.3,1567.2,3346.8,152.9,62.6,10.1
0.139000,324.1,1056.1,1596.3,151.2,3398.5,347.6,525.8,1569.8,3352.2,152.6,62.3,10.5
0.141000,309.5,1030.0,1606.9,105.7,3416.2,400.2,529.9,1572,3357.8,152.3,62,11
0.143000,405.3,911.5,1607.6,91.1,3411.9,530.4,535.5,1573.9,3363.5,151.9,61.7,11.4
0.145000,505.1,795.7,1605.6,97.9,3377.4,749.8,542.7,1575.4,3369.3,151.5,61.4,11.5
0.147000,577.5,732.6,1605.3,118.1,3305.7,963.7,551.3,1576.6,3375.2,151.1,61.1,14.5
0.149000,625.3,730.2,1609.2,133.4,3294.0,1063.2,561.3,1577.4,3381.1,150.6,60.9,20.5
0.151000,667.1,787.9,1613.0,132.4,3448.6,1037.6,572.7,1577.8,3386.9,150.2,60.6,24.7
0.153000,708.8,875.9,1611.6,120.9,3518.0,725.6,585.3,1577.9,3392.7,149.8,60.3,22.4
0.155000,728.0,926.0,1604.1,102.7,3542.6,658.2,599.1,1577.7,3398.3,149.3,60,8.5
0.157000,701.4,915.3,1592.8,82.6,3542.7,707.1,614,1577.2,3403.8,148.9,59.6,-23.3
0.159000,648.7,891.1,1581.1,66.7,3469.7,711.6,629.9,1576.3,3409.1,148.5,59.2,-70.1
0.161000,602.1,869.6,1572.6,59.5,3414.1,604.7,646.7,1575.2,3414.1,148.1,58.7,-121.7
0.163000,594.4,826.0,1569.9,61.0,3406.4,516.6,664.2,1573.8,3418.9,147.8,58.2,-168.3
0.165000,634.3,764.5,1570.7,67.3,3418.1,456.4,682.3,1572.1,3423.3,147.4,57.8,-200
0.167000,693.5,728.7,1567.2,72.4,3426.4,415.2,700.9,1570.3,3427.5,147.1,57.4,-213.3
0.169000,741.6,738.2,1557.9,76.7,3436.5,388.9,720,1568.3,3431.3,146.8,56.9,-215
0.171000,754.0,814.5,1547.3,81.0,3461.6,356.8,739.3,1566.1,3434.7,146.5,56.6,-210
0.173000,724.1,966.6,1542.8,82.8,3489.4,292.3,758.7,1563.8,3437.7,146.3,56.2,-203.3
0.175000,662.0,1121.5,1551.1,78.0,3492.6,231.8,778.1,1561.4,3440.3,146.1,55.7,-200
0.177000,625.9,1105.9,1570.6,65.3,3470.4,218.2,797.4,1559,3442.6,145.9,55.3,-200
0.179000,688.8,896.1,1587.3,54.9,3433.5,230.0,816.5,1556.5,3444.4,145.7,54.8,-200
0.181000,807.9,597.3,1592.8,53.2,3397.1,236.1,835.3,1554,3446,145.5,54.4,-200
0.183000,912.3,363.8,1587.6,61.2,3370.9,254.4,853.6,1551.5,3447.1,145.4,53.9,-200
0.185000,984.1,236.6,1573.7,83.2,3349.6,302.1,871.4,1549.1,3448,145.3,53.4,-200
0.187000,1027.0,185.9,1555.1,124.7,3332.3,367.1,888.5,1546.8,3448.5,145.2,53,-200
0.189000,1054.3,169.5,1541.7,177.2,3326.2,423.1,905,1544.5,3448.8,0,52.6,-200
0.191000,1064.5,168.7,1542.4,193.6,3332.9,456.8,920.7,1542.3,3448.9,0,52.1,-200
0.193000,1055.1,186.9,1541.5,162.6,3343.7,475.8,935.5,1540.3,3448.9,0,51.7,-200
0.195000,1030.6,226.8,1528.8,118.2,3360.1,481.3,949.4,1538.4,3448.7,0,51.3,-200
0.197000,1003.5,278.6,1512.1,81.2,3390.6,449.6,962.4,1536.7,3448.5,0,50.9,-200
0.199000,982.3,334.8,1501.2,56.1,3429.0,378.4,974.4,1535.1,3448.3,0,50.6,-200
0.201000,972.6,382.7,1499.7,44.6,3459.6,307.8,985.4,1533.7,3448.1,0,50.2,-200
0.203000,974.3,409.1,1504.6,44.3,3478.4,258.5,995.4,1532.5,3448.2,0,49.7,-200
0.205000,986.5,427.8,1510.7,53.5,3491.0,227.0,1004.4,1531.5,3448.4,0,49.3,-200
0.207000,1014.7,458.9,1512.3,74.1,3502.7,212.5,1012.4,1530.6,3448.8,0,48.7,-200
0.209000,1047.8,487.9,1506.6,105.8,3510.0,219.8,1019.4,1530,3449.6,0,47.9,-200
0.211000,1055.2,480.0,1499.6,147.4,3505.0,241.1,1025.4,1529.5,3450.9,0,47.3,-200
0.213000,1021.5,406.4,1505.8,197.9,3490.0,250.3,1030.5,1529.2,3452.5,0,46.8,-200
0.215000,973.4,299.1,1533.1,244.2,3486.8,230.9,1034.6,1529,3454.7,0,46.4,-200
0.217000,942.7,238.3,1552.7,240.2,3503.1,187.6,1037.9,1529.1,3457.5,0,46.2,-200
0.219000,932.6,230.0,1546.7,199.5,3518.7,135.9,1040.4,1529.2,3460.9,0,46,-200
0.221000,936.6,251.7,1534.6,166.9,3522.5,94.6,1042.2,1529.5,3464.9,0,46,-200
0.223000,951.0,297.8,1525.0,154.2,3519.4,70.7,1043.2,1530,3469.7,0,45.9,-200
0.225000,976.1,382.1,1513.6,159.3,3515.7,63.3,1043.6,1530.5,3475.2,0,45.5,-200
0.227000,1008.4,511.8,1496.2,167.7,3515.5,74.1,1043.4,1531.1,3481.5,0,45.2,-200
0.229000,1039.7,638.7,1485.0,159.0,3521.2,111.1,1042.7,1531.8,3488.6,0,44.9,-200
0.231000,1065.0,661.4,1492.8,148.1,3537.2,185.2,1041.6,1532.6,3496.4,0,44.8,-200
0.233000,1074.8,587.6,1511.1,147.0,3563.0,272.2,1040,1533.4,3505.1,0,44.9,-200
0.235000,1056.9,465.1,1533.7,146.8,3577.6,285.7,1038.2,1534.3,3514.6,0,45.2,-200
0.237000,1021.9,333.8,1555.4,140.1,3565.8,221.4,1036,1535.2,3524.8,0,45.6,-200
0.239000,993.7,237.4,1568.2,130.4,3549.0,167.1,1033.7,1536.1,3535.8,0,45.9,-200
0.241000,980.2,186.3,1570.6,125.0,3542.5,148.8,1031.2,1537,3547.5,0,46,-200
0.243000,977.5,168.5,1571.4,123.2,3540.9,156.8,1028.6,1537.9,3559.9,0,46.1,-200
0.245000,979.3,165.8,1580.7,113.1,3533.4,177.2,1025.9,1538.7,3572.9,0,46,-200
0.247000,986.8,177.3,1590.6,93.9,3520.9,200.2,1023.2,1539.6,3586.5,0,45.9,-200
0.249000,1011.2,216.2,1588.9,81.0,3512.5,231.6,1020.6,1540.4,3600.5,0,45.8,-200
0.251000,1064.1,284.7,1575.6,84.3,3515.3,284.0,1018,1541.1,3615,0,45.8,-200
0.253000,1128.6,350.7,1555.8,101.7,3530.7,348.7,1015.5,1541.8,3629.8,0,45.8,-200
0.255000,1152.6,383.7,1536.9,116.6,3552.2,388.3,1013.1,1542.4,3644.8,0,45.9,-200
0.257000,1114.9,366.1,1528.6,113.1,3568.5,374.8,1010.9,1543,3660,0,45.9,-200
0.259000,1052.6,300.4,1532.5,102.1,3582.3,330.0,1008.8,1543.5,3675.3,0,45.7,-200
0.261000,1001.0,230.6,1544.6,99.7,3611.2,286.7,1006.9,1544,3690.5,0,45.4,-200
0.263000,970.8,187.2,1562.2,109.3,3663.3,250.9,1005.1,1544.4,3705.6,0,44.8,-200
0.265000,961.8,178.4,1573.2,116.6,3729.6,209.5,1003.5,1544.8,3720.4,0,44,-200
0.267000,975.3,210.6,1566.2,107.2,3791.1,165.2,1002,1545.1,3734.9,0,43.3,-200
0.269000,1013.1,278.2,1556.2,98.4,3833.8,136.4,1000.8,1545.3,3749,0,42.8,-200
0.271000,1070.8,356.4,1551.7,103.8,3860.2,125.0,999.6,1545.5,3762.4,0,42.3,-200
0.273000,1121.9,391.5,1550.9,120.1,3870.2,128.3,998.7,1545.7,3775.2,0,42.1,-200
0.275000,1142.1,364.8,1551.5,137.7,3861.6,140.9,997.8,1545.8,3787.3,0,41.9,-200
0.277000,1137.9,324.2,1552.1,147.7,3845.1,151.3,997.1,1545.9,3798.5,0,42.1,-200
0.279000,1118.2,317.0,1551.1,153.2,3837.4,160.3,996.6,1545.9,3808.8,0,42.4,-200
0.281000,1080.7,371.9,1544.4,164.3,3837.3,174.4,996.1,1546,3818,0,42.8,-200
0.283000,1025.7,515.3,1527.8,183.7,3832.4,192.6,995.7,1546,3826.2,0,43.4,-200
0.285000,952.9,776.6,1502.5,201.7,3812.8,209.6,995.4,1546,3833.2,0,44,-200
0.287000,883.5,1072.0,1485.5,214.7,3787.0,216.0,995.1,1546,3839.1,0,44.5,-200
0.289000,863.1,1169.5,1491.6,232.3,3780.8,217.7,995,1546,3843.7,0,44.8,-200
0.291000,865.1,968.4,1522.0,235.5,3812.3,223.7,994.8,1546,3847,0,44.8,-200
0.293000,860.9,739.0,1554.3,206.7,3864.2,224.3,994.8,1546,3849,0,44.4,-200
0.295000,859.6,576.2,1569.4,166.5,3903.8,214.9,994.7,1546,3849.6,0,43.8,-200
