time,f1,b1,f2,b2,f3,b3,f1p,f2p,f3p,f0,intensity,harmonicity
0.025000,773.8,121.1,1808.1,212.2,3152.4,257.4,880.4,1745.4,3044,196.1,72.7,17.4
0.027000,784.7,122.2,1793.5,224.4,3135.0,297.5,879.6,1745.2,3044.3,196.1,72.7,18.1
0.029000,797.6,123.0,1786.7,243.5,3122.0,330.0,878.4,1744.7,3044.9,196.2,72.6,18.2
0.031000,812.0,122.4,1785.0,264.7,3122.5,350.9,876.7,1744,3045.7,196.2,72.5,17.9
0.033000,826.2,120.0,1783.6,274.2,3131.7,378.2,874.6,1743.2,3046.7,196.3,72.4,17.6
0.035000,838.5,117.9,1778.0,265.5,3138.9,433.3,872.1,1742.3,3048.1,196.3,72.4,17.5
0.037000,848.2,118.9,1767.1,252.4,3133.4,533.6,869.3,1741.2,3049.6,196.4,72.3,17.8
0.039000,855.1,124.2,1752.9,254.0,3099.1,684.1,866.2,1739.9,3051.5,196.4,72.2,18.3
0.041000,860.0,131.4,1738.0,278.7,3012.1,829.9,863,1738.6,3053.6,196.5,72.1,18.8
0.043000,863.9,135.7,1722.2,320.4,2895.3,844.0,859.7,1737.3,3056,196.6,72,19.1
0.045000,867.0,135.8,1706.7,364.0,2831.1,749.4,856.3,1735.8,3058.7,196.7,72,19.3
0.047000,868.5,134.8,1697.8,405.7,2834.5,676.0,853.1,1734.4,3061.8,196.8,71.9,19.2
0.049000,869.6,134.2,1697.5,449.5,2874.7,664.2,850,1733,3065.1,196.9,71.8,18.8
0.051000,873.0,132.7,1702.8,491.8,2930.8,698.7,847.1,1731.6,3068.8,197,71.7,18.4
0.053000,879.7,128.4,1706.0,521.4,2990.0,731.1,844.6,1730.3,3072.9,197.1,71.6,18
0.055000,887.3,122.6,1699.0,538.2,3035.3,696.6,842.6,1729.1,3077.3,197.2,71.6,17.8
0.057000,892.9,119.4,1683.8,556.4,3062.8,576.2,841,1727.9,3082.1,197.3,71.5,17.7
0.059000,896.3,122.3,1671.1,589.6,3087.0,437.1,840,1727,3087.3,197.5,71.5,17.7
0.061000,898.1,131.4,1667.2,642.1,3116.3,334.1,839.6,1726.2,3092.8,197.6,71.4,17.8
0.063000,899.0,142.3,1673.2,699.2,3148.0,270.0,840,1725.6,3098.7,197.8,71.4,17.9
0.065000,900.1,145.6,1682.7,710.6,3174.0,242.3,841.1,1725.2,3104.9,197.9,71.3,18.2
0.067000,902.1,137.1,1691.8,654.9,3187.4,242.9,842.9,1725.1,3111.5,198.1,71.3,18.7
0.069000,904.3,123.3,1705.6,571.3,3185.2,253.7,845.6,1725.1,3118.4,198.3,71.2,19.5
0.071000,905.9,110.7,1720.1,490.3,3169.4,263.8,849.2,1725.5,3125.6,198.5,71.1,20.3
0.073000,906.8,103.0,1728.6,434.3,3148.7,274.4,853.6,1726.1,3133.1,198.6,71,20.9
0.075000,906.9,102.8,1731.3,416.5,3139.4,298.3,858.8,1726.9,3140.9,198.8,71,20.8
0.077000,905.2,110.4,1733.3,434.3,3166.1,352.6,864.8,1728,3149,199,70.9,20
0.079000,901.0,118.6,1737.5,449.7,3242.6,413.0,871.6,1729.4,3157.2,199.2,70.8,18.4
0.081000,897.8,116.8,1738.9,420.9,3320.4,411.4,879,1731,3165.6,199.4,70.7,16.7
0.083000,899.8,108.8,1737.1,382.1,3348.9,375.5,887.2,1732.9,3174.1,199.7,70.6,15.1
0.085000,907.3,102.9,1735.3,374.4,3337.0,356.4,895.9,1734.9,3182.8,199.9,70.5,14.2
0.087000,917.2,101.9,1733.9,409.0,3295.2,370.3,905.1,1737.2,3191.5,200.1,70.3,14.2
0.089000,925.9,105.3,1735.5,477.8,3227.0,415.4,914.7,1739.7,3200.1,200.3,70.2,14.6
0.091000,931.0,109.3,1748.8,535.8,3158.4,473.3,924.6,1742.3,3208.7,200.6,70,15.4
0.093000,933.1,111.4,1775.5,539.9,3128.0,534.8,934.7,1745.1,3217.3,200.8,69.9,16.1
0.095000,934.6,111.9,1797.2,512.1,3129.7,588.0,944.9,1748,3225.6,201.1,69.9,16.5
0.097000,936.4,110.9,1803.1,485.8,3132.1,599.0,955,1750.9,3233.8,201.3,69.8,16.6
0.099000,938.6,107.6,1797.1,460.3,3127.7,542.4,964.8,1753.9,3241.7,201.6,69.8,16.5
0.101000,940.8,101.4,1788.4,422.6,3129.8,448.3,974.4,1756.9,3249.3,201.9,69.7,16.4
0.103000,943.3,93.0,1784.2,376.8,3146.7,370.9,983.5,1759.8,3256.5,202.1,69.7,16.3
0.105000,946.7,83.8,1785.9,335.3,3177.6,331.0,992.1,1762.7,3263.3,202.4,69.6,16.5
0.107000,951.3,75.5,1790.5,303.0,3217.8,319.1,999.9,1765.5,3269.7,202.7,69.6,17
0.109000,956.3,69.6,1793.6,276.8,3253.9,319.9,1007,1768.1,3275.6,203,69.5,17.9
0.111000,961.0,67.4,1793.0,257.8,3269.7,333.9,1013.1,1770.6,3281,203.3,69.5,18.8
0.113000,964.9,69.2,1790.0,252.8,3267.0,361.5,1018.2,1772.8,3285.8,203.6,69.4,19.6
0.115000,968.4,74.9,1787.0,267.9,3266.6,382.4,1022.2,1774.9,3290,203.9,69.3,20.1
0.117000,971.7,83.5,1786.4,309.0,3282.7,382.0,1025,1776.6,3293.6,204.2,69.1,20.3
0.119000,975.2,92.8,1789.4,374.3,3307.7,364.5,1026.5,1778.1,3296.6,204.6,68.9,20.2
0.121000,978.7,99.8,1789.9,423.0,3329.0,331.9,1026.8,1779.3,3299,204.9,68.7,20
0.123000,980.5,103.3,1777.5,383.8,3342.1,282.8,1025.7,1780.1,3300.7,205.2,68.6,19.7
0.125000,980.3,104.2,1760.3,292.7,3350.3,236.6,1023.3,1780.6,3301.8,205.6,68.4,19.2
0.127000,979.1,103.8,1748.9,228.5,3354.3,216.6,1019.5,1780.7,3302.3,206,68.2,18.7
0.129000,977.6,104.2,1743.1,204.6,3352.8,226.1,1014.4,1780.4,3302.1,206.3,68,17.9
0.131000,976.5,107.1,1740.4,207.8,3348.5,252.2,1007.9,1779.8,3301.4,206.7,67.9,17.2
0.133000,975.7,110.1,1738.8,206.9,3349.1,270.9,1000.3,1778.8,3300.1,207.1,67.7,16.4
0.135000,974.8,108.3,1739.1,179.7,3358.8,261.4,991.4,1777.4,3298.3,207.5,67.6,15.8
0.137000,974.3,101.8,1740.9,147.6,3368.5,239.5,981.4,1775.7,3296,207.9,67.4,15.3
0.139000,974.5,96.3,1741.9,132.5,3368.8,237.2,970.5,1773.6,3293.2,208.4,67.2,14.8
0.141000,973.5,97.0,1741.7,139.6,3353.6,285.4,958.6,1771.1,3290.1,208.8,67.1,14.5
0.143000,968.5,105.9,1743.3,165.2,3308.1,395.6,946,1768.4,3286.6,209.2,66.9,14.2
0.145000,958.4,122.4,1750.6,195.3,3248.0,491.8,932.8,1765.3,3282.9,209.6,66.7,14.1
0.147000,944.7,141.8,1758.8,212.0,3224.4,511.2,919.1,1762,3279,210.1,66.6,14.3
0.149000,929.9,158.1,1758.8,215.0,3231.8,452.0,905.1,1758.5,3274.9,210.5,66.4,14.6
0.151000,914.9,170.7,1749.2,215.2,3240.4,350.7,891,1754.7,3270.8,210.9,66.3,15.1
0.153000,900.4,184.9,1733.2,220.2,3236.5,250.6,876.9,1750.7,3266.7,211.3,66.1,15.5
0.155000,888.5,207.0,1718.9,236.3,3222.6,182.2,863,1746.7,3262.6,211.7,66,15.9
0.157000,882.1,237.3,1718.2,272.0,3209.3,153.1,849.4,1742.5,3258.7,212.1,65.9,16.3
0.159000,880.4,264.2,1736.6,321.9,3204.4,152.0,836.5,1738.2,3255.1,212.5,65.7,16.6
0.161000,879.0,278.5,1765.7,356.9,3207.9,167.0,824.2,1734,3251.7,212.9,65.6,17
0.163000,876.6,289.0,1790.5,355.9,3215.1,196.6,812.8,1729.7,3248.8,213.3,65.4,17.3
0.165000,878.1,304.9,1805.6,338.2,3220.1,247.5,802.5,1725.5,3246.2,213.7,65.3,17.5
0.167000,888.5,319.1,1814.5,332.2,3220.7,315.8,793.3,1721.4,3244.2,214,65.1,17.7
0.169000,903.3,322.6,1817.3,344.9,3222.4,373.0,785.4,1717.4,3242.7,214.3,64.9,17.8
0.171000,913.6,329.2,1805.5,374.1,3235.7,400.0,779,1713.6,3241.9,214.7,64.8,17.9
0.173000,916.8,372.5,1755.3,402.2,3260.9,410.5,774.1,1710,3241.7,214.9,64.6,17.9
0.175000,910.4,459.7,1668.5,362.7,3295.4,414.1,770.9,1706.6,3242.2,215.2,64.5,17.7
0.177000,901.4,507.0,1617.2,273.0,3326.0,421.2,769.4,1703.4,3243.4,215.5,64.4,17.2
0.179000,908.7,521.2,1610.1,229.9,3324.8,456.4,769.6,1700.5,3245.4,215.7,64.3,16.4
0.181000,915.9,573.6,1619.9,229.6,3291.5,503.5,771.6,1697.9,3248.2,215.9,64.1,15.6
0.183000,899.7,692.1,1630.9,239.6,3257.7,536.8,775.4,1695.5,3251.8,216.1,63.9,14.9
0.185000,824.0,900.9,1635.8,234.4,3239.3,573.8,781,1693.5,3256.3,216.3,63.7,14.4
0.187000,613.4,1132.9,1639.5,206.9,3228.6,627.6,788.3,1691.9,3261.5,216.4,63.5,14.4
0.189000,382.3,922.4,1650.6,175.5,3223.4,658.2,797.4,1690.5,3267.5,216.5,63.3,14.7
0.191000,376.0,1004.2,1670.7,156.4,3246.6,595.5,808.1,1689.5,3274.3,216.6,63,15.1
0.193000,588.3,1102.3,1698.7,149.5,3285.9,475.8,820.4,1688.8,3281.8,216.7,62.8,15.5
0.195000,694.1,986.5,1731.3,151.8,3311.0,392.5,834.1,1688.4,3290.1,216.7,62.6,15.7
0.197000,737.6,904.6,1763.0,161.7,3313.5,361.2,849.1,1688.3,3299.1,216.8,62.4,15.7
0.199000,771.0,838.5,1785.9,179.3,3294.0,363.0,865.3,1688.5,3308.7,216.8,62.2,15.6
0.201000,813.5,770.5,1793.5,201.7,3262.3,374.4,882.5,1688.9,3318.8,216.8,61.9,15.5
0.203000,856.5,721.8,1782.4,224.3,3247.8,379.9,900.6,1689.6,3329.5,216.7,61.7,15.3
0.205000,891.6,719.7,1754.7,244.2,3278.6,373.2,919.4,1690.5,3340.7,216.7,61.4,15.2
0.207000,917.4,771.4,1713.8,255.2,3343.8,333.9,938.6,1691.6,3352.3,216.6,61.1,15
0.209000,933.6,874.3,1664.6,244.3,3404.6,257.9,958.2,1692.9,3364.2,216.5,60.8,14.9
0.211000,946.4,980.0,1624.3,211.3,3441.4,179.0,977.8,1694.3,3376.4,216.3,60.5,14.8
0.213000,980.0,973.3,1611.2,185.5,3460.2,120.6,997.3,1695.8,3388.7,216.2,60.3,14.6
0.215000,1027.6,819.9,1628.6,179.4,3470.0,84.8,1016.6,1697.3,3401.2,216,60,14.3
0.217000,1056.7,655.9,1665.0,173.3,3475.9,67.6,1035.3,1698.9,3413.7,215.8,59.7,14
0.219000,1084.3,593.7,1692.0,164.5,3478.6,66.2,1053.3,1700.4,3426.2,215.6,59.4,13.6
0.221000,1135.4,633.0,1694.2,167.2,3476.9,79.9,1070.5,1702,3438.6,215.4,59.1,13.1
0.223000,1203.1,737.8,1678.1,178.6,3470.7,109.0,1086.6,1703.4,3450.8,215.2,58.7,12.7
0.225000,1262.1,902.0,1656.7,185.7,3462.4,155.3,1101.5,1704.8,3462.8,215,58.2,12.3
0.227000,1289.6,1104.7,1647.7,188.1,3455.0,218.5,1115.1,1706,3474.4,214.7,57.8,11.9
0.229000,1271.1,1217.1,1669.1,206.7,3450.6,279.8,1127.1,1707.1,3485.7,214.5,57.3,11.6
0.231000,1190.3,1104.0,1730.6,227.2,3448.4,292.5,1137.6,1708,3496.5,214.3,56.7,11.3
0.233000,1101.2,863.6,1790.9,203.6,3449.5,247.5,1146.4,1708.6,3506.9,214,56.2,11
0.235000,1077.6,685.2,1800.8,173.5,3459.2,200.9,1153.4,1709.1,3516.8,213.8,55.7,10.7
0.237000,1092.8,633.0,1776.7,161.1,3475.3,181.8,1158.6,1709.4,3526.1,213.6,55.2,13.8
0.239000,1112.0,673.1,1747.6,158.7,3492.2,186.5,1162,1709.4,3534.9,213.4,54.6,20.2
0.241000,1122.7,769.8,1726.1,161.2,3510.4,207.2,1163.5,1709.1,3543,213.2,54,25
0.243000,1127.9,898.1,1713.1,171.1,3536.8,232.4,1163.1,1708.6,3550.5,213,53.3,23.1
0.245000,1149.1,1012.6,1703.1,194.5,3570.8,233.9,1161,1707.8,3557.4,212.8,52.5,9.5
0.247000,1204.9,1076.9,1686.5,229.4,3592.8,200.6,1157,1706.8,3563.6,212.7,51.6,-22.4
0.249000,1251.4,1109.5,1665.6,246.8,3594.3,167.8,1151.4,1705.6,3569.2,212.6,50.7,-69.4
0.251000,1227.0,1084.8,1661.7,235.1,3582.9,153.8,1144.2,1704.1,3574.2,212.5,49.8,-121.3
0.253000,1166.8,983.1,1673.0,219.0,3564.6,157.2,1135.6,1702.4,3578.5,212.4,48.9,-168.2
0.255000,1135.8,892.9,1684.3,213.6,3544.1,179.2,1125.6,1700.5,3582.3,212.4,48,-200
0.257000,1148.2,919.9,1684.1,220.2,3530.4,239.3,1114.4,1698.5,3585.5,212.4,47.3,-213.4
0.259000,1200.1,1125.0,1667.9,221.4,3544.7,378.2,1102.2,1696.3,3588.1,212.3,46.4,-215.1
0.261000,1281.4,1410.1,1652.8,202.8,3623.9,567.6,1089.1,1694,3590.3,212.4,46,-210.1
0.263000,1278.3,1488.1,1653.9,183.8,3714.0,595.6,1075.4,1691.5,3592,212.4,45.3,-203.4
0.265000,1044.1,1263.3,1665.7,165.1,3712.5,497.3,1061.2,1689.1,3593.3,212.4,44.9,-200
0.267000,908.5,697.2,1680.6,148.3,3671.4,397.4,1046.7,1686.5,3594.2,212.5,44.5,-200
0.269000,895.6,389.7,1700.7,143.9,3631.5,330.4,1032.1,1684,3594.8,212.6,44.1,-200
0.271000,896.9,253.7,1726.7,146.4,3601.0,296.4,1017.6,1681.5,3595.1,212.7,43.5,-200
0.273000,897.9,203.9,1744.5,141.8,3584.0,276.4,1003.5,1679.1,3595.2,0,43.3,-200
0.275000,899.2,200.7,1744.9,129.2,3578.4,255.9,989.8,1676.7,3595,0,42.6,-200
0.277000,904.9,224.3,1732.8,117.7,3573.4,232.1,976.8,1674.5,3594.8,0,42.3,-200
0.279000,916.8,255.5,1713.9,113.7,3565.2,208.7,964.7,1672.4,3594.4,0,42.1,-200
0.281000,931.1,276.8,1692.1,118.1,3558.3,182.9,953.6,1670.5,3594,0,41.2,-200
0.283000,944.2,297.8,1673.9,132.6,3556.3,153.5,943.7,1668.8,3593.5,0,40.9,-200
0.285000,955.0,337.0,1665.8,156.6,3558.6,131.0,935,1667.4,3593.1,0,39.8,-200
0.287000,955.8,373.5,1662.1,167.7,3563.9,132.4,927.8,1666.1,3592.7,0,39.1,-200
0.289000,942.0,340.1,1648.6,147.3,3572.7,167.3,922,1665.1,3592.3,0,38.6,-200
0.291000,930.9,250.3,1631.8,123.3,3587.1,214.5,917.9,1664.4,3592.1,0,38.5,-200
0.293000,926.2,176.6,1620.6,112.7,3609.8,226.2,915.4,1664,3591.9,0,38.9,-200
0.295000,921.9,135.5,1614.6,111.8,3632.6,199.6,914.5,1663.9,3591.9,0,39.4,-200
