time,f1,b1,f2,b2,f3,b3,f1p,f2p,f3p,f0,intensity,harmonicity
0.026000,802.7,108.8,1682.6,358.9,3308.2,2626.7,803.9,1717.6,3221.8,156.2,77.3,11
0.028000,815.2,110.7,1696.6,302.9,3366.7,1331.4,806,1717.5,3221.9,155.9,77.3,10.8
0.030000,828.3,112.6,1706.1,247.1,3269.2,875.5,809.3,1717.4,3221.9,155.5,77.3,10
0.032000,842.2,112.7,1713.8,203.1,3221.1,641.8,813.9,1717.3,3222,155.2,77.2,9.1
0.034000,855.5,109.4,1718.6,175.0,3207.0,528.3,819.7,1717,3222,154.8,77.2,8.5
0.036000,867.6,104.3,1721.6,160.6,3212.6,476.5,826.6,1716.7,3221.9,154.5,77.1,8.4
0.038000,877.4,98.4,1722.9,156.2,3224.1,454.3,834.5,1716.3,3221.7,154.1,76.9,8.7
0.040000,882.2,94.2,1722.0,158.9,3227.2,444.2,843.2,1715.7,3221.4,153.7,76.8,9.2
0.042000,884.0,92.7,1718.6,165.4,3217.9,429.7,852.5,1714.9,3220.9,153.4,76.7,9.8
0.044000,885.2,93.2,1713.7,173.0,3202.9,407.5,862.4,1714,3220.1,153,76.5,10.4
0.046000,886.3,94.0,1708.8,182.6,3187.7,381.9,872.6,1712.7,3219,152.7,76.4,11
0.048000,886.8,95.9,1703.7,206.3,3170.7,354.7,883,1711.3,3217.6,152.4,76.3,11.7
0.050000,887.0,100.0,1698.1,256.4,3154.5,332.7,893.4,1709.5,3215.8,152,76.2,12.5
0.052000,888.4,103.5,1694.4,320.2,3145.7,321.5,903.6,1707.3,3213.5,151.7,76.1,13.2
0.054000,891.1,104.0,1700.6,346.2,3149.9,322.3,913.4,1704.8,3210.8,151.4,76,13.8
0.056000,894.5,103.1,1714.2,311.2,3166.5,330.7,922.7,1701.9,3207.6,151.2,75.9,14.1
0.058000,899.2,103.4,1719.7,252.0,3188.4,338.7,931.3,1698.7,3203.9,150.9,75.8,14.2
0.060000,904.0,105.6,1710.5,204.5,3203.4,338.4,939.1,1695,3199.6,150.7,75.7,14.1
0.062000,908.8,109.7,1694.4,169.9,3204.1,323.2,945.9,1690.8,3194.9,150.4,75.6,13.9
0.064000,913.8,113.6,1682.8,145.5,3191.2,300.9,951.5,1686.3,3189.6,150.2,75.6,13.9
0.066000,916.3,116.2,1679.5,138.2,3171.3,302.3,956,1681.4,3183.8,150,75.5,14
0.068000,914.5,119.3,1681.5,153.8,3142.6,349.9,959.1,1676,3177.6,149.9,75.3,14.1
0.070000,911.3,122.3,1685.2,192.3,3104.9,430.4,961,1670.3,3170.9,149.7,75.2,14.3
0.072000,911.1,124.7,1686.4,238.6,3076.9,492.4,961.4,1664.2,3164,149.6,75.1,14.6
0.074000,912.9,126.9,1680.2,261.6,3084.3,502.6,960.4,1657.8,3156.7,149.4,75,15
0.076000,913.3,129.1,1667.4,249.2,3124.4,471.7,958,1651.2,3149.2,149.3,74.9,15.6
0.078000,911.8,129.4,1654.8,220.1,3173.1,421.8,954.2,1644.3,3141.7,149.3,74.8,16.6
0.080000,910.1,127.0,1647.4,196.0,3203.5,386.0,949.1,1637.2,3134.1,149.2,74.7,17.7
0.082000,908.6,125.0,1643.5,183.0,3210.6,382.3,942.7,1630.1,3126.6,149.1,74.5,18.6
0.084000,907.4,125.0,1640.2,178.8,3198.5,419.2,935,1622.9,3119.2,149.1,74.4,19.2
0.086000,907.6,127.1,1637.4,181.7,3181.0,503.5,926.3,1615.7,3112.2,149.1,74.3,19.1
0.088000,909.1,133.7,1634.5,196.6,3177.7,656.7,916.6,1608.6,3105.6,149.1,74.1,18.3
0.090000,910.6,146.1,1627.8,229.7,3191.3,882.7,906,1601.7,3099.5,149.1,73.9,17.1
0.092000,911.5,160.0,1614.8,278.9,3199.8,1115.1,894.7,1595,3094.1,149.2,73.7,15.8
0.094000,911.7,172.6,1598.3,334.6,3188.6,1244.4,882.8,1588.6,3089.4,149.3,73.4,14.8
0.096000,909.3,188.7,1584.7,388.4,3151.8,1287.7,870.5,1582.6,3085.5,149.4,73.1,14.2
0.098000,900.7,212.5,1573.7,431.4,3081.2,1343.9,857.9,1577,3082.5,149.5,72.7,14
0.100000,886.1,236.7,1561.8,441.8,2985.7,1391.8,845,1571.8,3080.5,149.6,72.3,14
0.102000,872.5,259.6,1548.0,430.3,2938.4,1293.1,832.2,1567.3,3079.6,149.7,71.9,14.1
0.104000,864.6,288.4,1529.6,421.0,2957.4,1076.0,819.5,1563.3,3079.7,149.9,71.6,14.1
0.106000,865.1,317.1,1510.6,424.5,2984.4,861.9,807.1,1559.9,3081,150.1,71.3,13.9
0.108000,870.1,342.3,1495.1,452.5,3009.0,717.9,795,1557.3,3083.4,150.3,71,13.7
0.110000,867.7,366.6,1483.4,516.8,3034.1,666.2,783.4,1555.3,3087,150.5,70.7,13.4
0.112000,857.0,386.4,1480.9,606.9,3063.2,680.6,772.3,1554,3091.7,150.7,70.4,13
0.114000,847.9,404.0,1498.7,674.5,3101.8,728.4,761.9,1553.4,3097.4,151,70,12.6
0.116000,837.7,444.0,1520.3,641.1,3149.1,749.3,752.1,1553.5,3104.3,151.2,69.7,11.9
0.118000,812.5,515.1,1524.8,497.5,3186.4,659.7,743.1,1554.2,3112.1,151.5,69.5,10.9
0.120000,779.9,574.2,1525.2,349.9,3196.1,502.6,734.8,1555.7,3120.7,151.8,69.2,9.8
0.122000,757.5,601.4,1528.9,256.5,3194.5,386.2,727.3,1557.7,3130.2,152,69.1,8.8
0.124000,737.8,601.2,1535.1,203.9,3191.8,335.9,720.6,1560.4,3140.3,152.3,69,8.1
0.126000,712.9,577.5,1545.6,174.3,3187.9,349.1,714.6,1563.6,3151,152.6,68.9,7.9
0.128000,681.3,536.7,1565.5,156.5,3183.9,434.2,709.2,1567.2,3162.1,152.9,68.8,8.2
0.130000,648.4,491.8,1597.3,146.0,3185.5,557.7,704.5,1571.2,3173.5,153.2,68.7,8.8
0.132000,620.3,443.6,1634.4,137.5,3191.3,608.3,700.4,1575.6,3185,153.5,68.5,9.5
0.134000,601.7,401.5,1667.0,137.5,3181.8,560.6,696.8,1580.3,3196.5,153.8,68.3,10.3
0.136000,595.7,386.3,1693.5,156.6,3158.9,485.3,693.6,1585.1,3207.8,154.1,68.2,10.9
0.138000,608.1,410.9,1715.0,202.4,3140.0,417.3,690.8,1590,3218.8,154.3,68,11.8
0.140000,644.9,472.9,1709.6,267.8,3132.3,389.6,688.3,1594.9,3229.3,154.6,67.8,12.7
0.142000,667.0,512.6,1651.9,313.5,3140.9,421.3,685.9,1599.8,3239.3,154.8,67.6,13.4
0.144000,658.0,511.4,1593.6,302.7,3180.9,479.3,683.6,1604.6,3248.6,155.1,67.5,13.9
0.146000,654.1,542.3,1583.5,296.8,3246.3,489.4,681.4,1609.1,3257,155.3,67.3,14
0.148000,662.1,645.8,1608.0,326.6,3307.1,422.2,679.1,1613.3,3264.6,155.5,67.1,13.5
0.150000,684.3,768.6,1647.3,367.3,3338.1,347.0,676.8,1617.2,3271.2,155.6,66.9,12.7
0.152000,675.4,797.4,1666.2,379.1,3351.3,317.7,674.3,1620.7,3276.7,155.8,66.8,11.9
0.154000,623.0,743.2,1648.0,350.1,3355.3,321.5,671.6,1623.7,3281.2,155.9,66.6,11.3
0.156000,581.7,694.2,1619.6,304.1,3351.9,323.3,668.8,1626.2,3284.7,156,66.5,11
0.158000,557.5,718.5,1599.4,277.8,3343.8,320.7,665.8,1628.1,3287,156.1,66.4,11
0.160000,551.9,854.0,1588.6,291.4,3330.8,345.3,662.7,1629.5,3288.4,156.1,66.3,11.1
0.162000,590.8,1136.8,1583.4,336.9,3309.4,406.5,659.4,1630.3,3288.7,156.1,66.1,11.3
0.164000,692.8,1365.8,1581.3,373.4,3276.9,499.5,656.1,1630.5,3288.2,156.1,66,11.5
0.166000,658.7,1454.4,1583.0,361.4,3234.4,602.9,652.7,1630.2,3286.8,156,65.9,11.8
0.168000,514.0,1519.7,1591.4,316.2,3189.5,683.8,649.5,1629.3,3284.8,155.9,65.7,12.1
0.170000,345.5,2081.4,1598.8,261.0,3159.6,711.6,646.4,1627.8,3282.2,155.7,65.5,12.5
0.172000,596.0,2582.6,1599.0,196.2,3151.1,700.7,643.7,1625.9,3279.1,155.6,65.4,12.9
0.174000,730.0,2799.2,1597.8,132.9,3162.1,683.9,641.3,1623.4,3275.9,155.3,65.2,13
0.176000,663.1,2943.9,1601.1,90.9,3180.7,685.7,639.5,1620.6,3272.5,155.1,65,12.9
0.178000,453.8,3006.2,1607.1,68.2,3203.8,711.7,638.4,1617.4,3269.3,154.8,64.8,12.3
0.180000,597.5,2766.3,1611.9,60.6,3248.8,753.2,638.1,1614,3266.3,154.5,64.5,11.4
0.182000,962.6,2157.5,1613.3,66.2,3333.5,766.7,638.8,1610.3,3263.8,154.2,64.1,10.6
0.184000,1156.5,1486.7,1611.6,89.4,3424.8,693.6,640.6,1606.4,3262,153.8,63.7,10
0.186000,1217.3,1048.9,1609.7,130.0,3468.6,588.1,643.7,1602.5,3261,153.4,63.2,10.8
0.188000,1238.4,870.0,1604.4,176.1,3467.1,505.2,648.1,1598.5,3261,153,62.6,16.8
0.190000,1249.5,1006.1,1582.8,197.7,3432.1,466.0,654.1,1594.6,3262.1,152.5,62,23.8
0.192000,1160.5,1639.8,1558.8,167.7,3364.2,471.2,661.6,1590.9,3264.6,152.1,61.4,26.6
0.194000,297.6,1603.2,1553.8,132.0,3266.4,471.3,670.9,1587.3,3268.5,151.6,60.6,20.1
0.196000,325.2,1209.2,1557.7,117.8,3192.9,420.1,681.9,1584,3273.9,151.2,59.8,-1.9
0.198000,299.9,1151.8,1564.9,120.2,3176.8,386.1,694.7,1581,3281,150.7,58.9,-42.9
0.200000,315.6,1169.1,1576.3,137.0,3218.3,399.5,709.3,1578.4,3289.8,150.3,58,-94.1
0.202000,426.7,1133.3,1594.4,165.4,3304.5,388.9,725.8,1576.2,3300.2,149.8,56.9,-145.4
0.204000,590.8,944.0,1611.0,169.8,3364.6,341.8,744,1574.4,3312.4,149.4,55.9,-186.4
0.206000,702.0,732.6,1608.3,121.6,3378.4,345.9,764,1573.2,3326.3,148.9,54.8,-208.6
0.208000,777.6,594.4,1598.8,74.2,3357.0,397.7,785.7,1572.4,3341.8,148.5,53.8,-215.6
0.210000,838.3,528.7,1593.5,52.7,3314.3,471.8,808.8,1572,3359,148.1,52.8,-213.2
0.212000,886.6,480.8,1591.9,46.0,3267.3,569.3,833.5,1572.2,3377.5,147.8,51.9,-206.7
0.214000,909.0,424.0,1593.4,46.5,3232.1,705.1,859.3,1572.9,3397.4,147.4,51,-201
0.216000,902.0,381.5,1598.2,51.4,3244.4,891.5,886.2,1574.1,3418.5,0,50.1,-200
0.218000,875.3,365.2,1607.1,57.8,3361.8,1135.6,914,1575.6,3440.6,0,49.3,-200
0.220000,843.2,378.7,1614.6,56.2,3496.8,1384.9,942.5,1577.6,3463.5,0,48.5,-200
0.222000,824.3,429.9,1611.9,44.7,3547.6,1331.7,971.3,1579.9,3486.9,0,47.8,-200
0.224000,838.3,506.9,1602.4,34.3,3590.6,1091.9,1000.2,1582.6,3510.7,0,47.1,-200
0.226000,887.5,568.6,1593.3,30.4,3541.7,760.0,1029,1585.5,3534.6,0,46.7,-200
0.228000,951.8,627.9,1587.0,33.2,3517.5,726.8,1057.4,1588.5,3558.3,0,46.6,-200
0.230000,1008.1,733.6,1585.3,42.8,3549.8,738.4,1085.1,1591.7,3581.6,0,46.2,-200
0.232000,1055.7,863.7,1589.2,54.5,3638.2,711.9,1111.9,1595,3604.2,0,45.9,-200
0.234000,1085.7,940.8,1596.0,60.5,3725.8,607.5,1137.4,1598.2,3625.9,0,45.8,-200
0.236000,1094.2,952.0,1601.9,63.6,3801.9,503.5,1161.3,1601.4,3646.3,0,45.6,-200
0.238000,1100.7,933.6,1608.0,71.4,3744.6,1807.7,1183.6,1604.5,3665.4,0,45.5,-200
0.240000,1122.8,909.4,1615.3,85.4,3566.2,2428.3,1203.8,1607.3,3682.8,0,45.5,-200
0.242000,1168.5,908.8,1621.6,103.1,3354.3,3235.9,1221.8,1609.9,3698.3,0,45.6,-200
0.244000,1240.7,954.8,1623.3,123.1,3205.4,4584.7,1237.4,1612.2,3711.7,0,45.8,-200
0.246000,1337.0,1061.9,1616.4,143.8,3969.6,293.7,1250.4,1614.1,3723,0,45.8,-200
0.248000,1495.4,1223.7,1594.6,160.4,3965.1,329.2,1260.6,1615.7,3731.9,0,45.7,-200
0.250000,1562.1,162.1,1623.7,1337.7,3918.8,356.3,1268.1,1616.8,3738.3,0,45.4,-200
0.252000,1534.4,157.1,1564.9,1551.8,3844.6,395.8,1272.5,1617.5,3742.2,0,44.9,-200
0.254000,1375.2,1573.3,1521.9,161.2,3751.0,421.8,1274,1617.7,3743.5,0,44.3,-200
