time,f1,b1,f2,b2,f3,b3,f1p,f2p,f3p,f0,intensity,harmonicity
0.026000,846.5,98.2,1829.8,94.3,3151.2,305.3,843.4,1830.7,3092.8,166.3,71.7,8.6
0.028000,852.0,92.0,1828.1,92.9,3143.9,358.4,845.2,1829.1,3092.4,164.9,71.8,7.9
0.030000,855.6,87.6,1825.5,94.7,3131.1,420.5,848.2,1826.5,3091.9,163.4,71.9,6.9
0.032000,858.6,84.9,1821.1,97.3,3110.6,479.1,852.2,1823.1,3091.2,161.7,71.9,6.1
0.034000,861.6,83.6,1815.3,98.2,3088.7,517.0,857.3,1818.8,3090.5,159.8,71.8,5.7
0.036000,865.3,84.5,1810.2,99.5,3078.5,538.5,863.2,1813.8,3089.9,157.8,71.7,6.3
0.038000,870.1,88.9,1805.6,106.4,3086.2,573.8,869.9,1808.3,3089.5,155.6,71.5,7.8
0.040000,875.3,96.3,1801.6,120.5,3107.0,630.9,877.1,1802.3,3089.4,153.3,71.3,9.8
0.042000,882.0,104.8,1796.3,140.6,3112.6,709.2,884.7,1796.2,3089.7,150.9,70.9,11.9
0.044000,891.4,111.4,1788.3,163.6,3071.5,783.1,892.6,1789.9,3090.7,148.3,70.5,13.5
0.046000,902.0,113.8,1780.3,180.2,3028.7,765.8,900.5,1783.7,3092.3,145.6,70,14.3
0.048000,913.1,113.5,1774.3,186.8,3020.0,683.1,908.3,1777.8,3094.8,142.8,69.5,14.5
0.050000,921.3,113.0,1770.7,185.6,3027.1,600.8,915.7,1772.2,3098.3,139.9,69.1,14.3
0.052000,924.2,112.1,1767.9,180.4,3031.6,535.9,922.8,1767,3102.8,136.9,68.6,13.9
0.054000,921.0,110.9,1766.2,176.6,3038.6,494.1,929.2,1762.4,3108.4,133.9,68.2,13.4
0.056000,916.2,110.1,1766.1,178.1,3054.7,479.5,934.9,1758.3,3115.1,130.9,67.8,13
0.058000,915.6,109.0,1767.8,179.8,3085.2,479.3,939.8,1754.9,3123,128,67.4,12.3
0.060000,921.2,108.3,1770.5,175.6,3130.7,480.5,943.7,1752,3132,0,67.1,11.5
0.062000,931.0,107.1,1771.4,164.0,3183.1,469.1,946.8,1749.8,3142,122.2,66.8,10.8
0.064000,941.0,103.0,1767.1,148.7,3223.9,446.5,948.8,1748,3153,119.5,66.5,10.4
0.066000,948.0,97.3,1758.3,139.0,3241.8,441.2,949.9,1746.7,3164.9,117,66.2,10.5
0.068000,952.4,93.0,1746.9,139.8,3244.5,475.3,950.1,1745.8,3177.5,114.6,66,11.2
0.070000,954.1,91.6,1735.4,147.6,3238.4,533.4,949.5,1745.1,3190.7,112.4,65.7,12.2
0.072000,953.8,92.0,1724.2,151.9,3232.9,564.1,948.1,1744.5,3204.3,110.5,65.4,13.2
0.074000,952.1,93.7,1714.2,147.6,3238.9,525.5,946,1743.9,3218.1,108.9,65.1,13.7
0.076000,949.6,97.6,1710.5,144.0,3253.7,444.2,943.5,1743.1,3232,107.5,64.8,13.5
0.078000,947.2,104.8,1716.1,151.6,3268.5,362.6,940.6,1742.1,3245.7,106.5,64.5,12.4
0.080000,945.4,113.0,1727.0,168.1,3277.5,312.4,937.5,1740.8,3259,105.8,64.2,10.9
0.082000,945.4,118.9,1737.6,179.3,3280.1,291.5,934.5,1739.1,3271.8,105.4,63.9,9.4
0.084000,947.3,122.0,1746.7,167.6,3275.9,290.6,931.6,1736.9,3283.9,105.3,63.5,8.3
0.086000,947.8,126.6,1753.7,137.7,3268.4,305.8,929.1,1734.2,3295.1,105.6,63.2,8.1
0.088000,941.6,137.0,1756.5,110.4,3264.6,346.8,927.1,1731.1,3305.4,106.2,62.9,8.6
0.090000,928.9,150.2,1753.3,99.8,3277.6,421.2,925.8,1727.4,3314.6,107.2,62.6,9.6
0.092000,917.7,163.4,1743.0,105.5,3313.6,531.8,925.3,1723.4,3322.7,108.5,62.4,10.6
0.094000,916.3,178.7,1721.6,123.2,3347.1,654.7,925.7,1719,3329.6,110,62.1,11.2
0.096000,926.5,196.5,1694.8,134.5,3340.9,675.0,927.2,1714.4,3335.3,111.8,61.9,11.2
0.098000,946.9,216.8,1678.7,124.9,3324.5,583.5,929.8,1709.7,3339.9,113.9,61.6,10.6
0.100000,969.2,236.5,1680.3,106.8,3309.8,478.1,933.5,1705,3343.4,116.2,61.3,9.6
0.102000,980.2,259.6,1687.7,95.6,3300.7,388.1,938.4,1700.5,3345.8,118.7,61.1,8.6
0.104000,969.5,296.9,1693.4,97.7,3303.8,319.4,944.4,1696.3,3347.3,121.4,60.8,7.9
0.106000,941.6,359.2,1694.6,117.7,3318.6,278.4,951.5,1692.6,3348,124.1,60.7,7.8
0.108000,910.2,462.3,1690.9,161.0,3339.5,261.3,959.6,1689.5,3348.1,127,60.6,8.1
0.110000,902.7,579.2,1690.6,205.3,3357.5,265.5,968.5,1687.1,3347.6,129.9,60.5,8.7
0.112000,927.4,656.6,1705.2,212.4,3371.6,283.2,978.1,1685.5,3346.7,132.8,60.5,9.4
0.114000,961.3,702.8,1718.5,185.4,3381.4,308.2,988.3,1684.7,3345.6,135.7,60.5,10
0.116000,986.5,751.9,1713.8,150.3,3381.5,312.6,998.8,1684.9,3344.5,138.6,60.6,10.5
0.118000,1001.0,789.3,1701.7,115.0,3364.8,269.4,1009.4,1685.9,3343.4,141.4,60.6,10.8
0.120000,1010.7,789.5,1696.5,90.0,3340.2,211.4,1019.9,1687.7,3342.5,144.1,60.7,11.2
0.122000,1025.1,773.2,1697.5,77.2,3323.6,169.3,1030.1,1690.3,3342,146.6,60.8,11.5
0.124000,1039.5,755.6,1700.3,75.9,3323.6,149.3,1039.8,1693.6,3341.9,149.1,60.8,11.8
0.126000,1042.3,706.6,1702.8,83.6,3338.0,146.4,1048.7,1697.4,3342.4,151.4,60.9,12
0.128000,1035.7,611.1,1703.7,96.3,3359.4,153.6,1056.6,1701.6,3343.4,153.5,60.9,12.1
0.130000,1035.4,542.0,1697.0,103.2,3376.8,163.5,1063.3,1705.9,3345,155.5,60.9,12.2
0.132000,1049.2,520.5,1683.0,90.0,3379.7,159.8,1068.6,1710.1,3347.3,157.2,60.9,12.2
0.134000,1076.0,516.9,1674.1,69.4,3369.1,136.6,1072.4,1714,3350.2,158.8,60.7,12.2
0.136000,1105.8,522.8,1673.7,58.9,3360.4,117.1,1074.6,1717.5,3353.7,160.3,60.4,12.2
0.138000,1130.8,536.2,1679.2,57.7,3357.0,114.5,1075,1720.3,3357.7,161.5,60.1,12.1
0.140000,1145.2,532.1,1689.4,63.7,3355.0,129.4,1073.5,1722.1,3362.3,162.6,59.6,11.9
0.142000,1153.8,494.6,1704.7,75.5,3352.9,159.5,1070.3,1722.9,3367.4,163.5,59.1,11.8
0.144000,1159.9,439.6,1724.0,90.2,3356.2,210.1,1065.2,1722.5,3372.8,164.3,58.6,11.6
0.146000,1159.5,410.6,1739.0,100.5,3375.0,286.7,1058.4,1720.7,3378.5,165,58,12.4
0.148000,1140.8,433.3,1744.3,106.4,3414.1,380.2,1049.8,1717.5,3384.4,165.5,57.5,17.9
0.150000,1086.6,503.5,1740.9,110.8,3434.0,400.0,1039.7,1712.9,3390.5,165.9,56.9,24.3
0.152000,996.9,562.2,1735.3,112.9,3413.2,324.2,1028.3,1706.9,3396.5,166.3,56.4,26.4
0.154000,916.0,529.4,1728.4,103.5,3384.0,232.1,1015.6,1699.5,3402.5,166.5,55.9,19.3
0.156000,884.1,436.3,1716.3,81.4,3364.7,181.0,1002,1690.9,3408.3,166.7,55.3,-2.8
0.158000,878.5,350.3,1701.5,62.0,3355.5,170.9,987.6,1681.2,3413.9,166.8,54.8,-43.7
0.160000,878.6,311.3,1688.5,56.7,3359.4,196.4,972.7,1670.7,3419.3,166.8,54.1,-94.7
0.162000,876.9,315.9,1676.2,66.6,3381.3,246.1,957.7,1659.5,3424.3,166.8,53.4,-145.7
0.164000,871.3,349.4,1661.7,95.8,3418.9,290.3,942.7,1647.9,3429,166.8,52.5,-186.5
0.166000,864.2,391.1,1642.3,140.5,3450.1,308.2,928.2,1636.3,3433.3,166.7,51.6,-208.5
0.168000,862.5,438.2,1613.3,180.1,3465.2,306.8,914.2,1624.8,3437.1,166.6,50.6,-215.5
0.170000,875.0,484.8,1581.4,186.1,3460.1,277.8,901.2,1613.8,3440.5,166.5,49.4,-213.2
0.172000,902.3,508.9,1553.7,172.3,3445.8,229.4,889.4,1603.6,3443.5,166.4,48.3,-206.6
0.174000,925.1,456.2,1536.8,157.1,3436.4,194.1,878.9,1594.5,3446,166.3,47.2,-200.9
0.176000,929.7,340.9,1538.8,148.7,3436.7,190.2,870.1,1586.6,3448,0,46.4,-200
0.178000,923.6,232.4,1559.9,149.2,3448.5,206.0,863,1580.3,3449.6,0,45.7,-200
0.180000,914.0,162.9,1590.6,155.1,3468.5,215.3,857.9,1575.6,3450.8,0,45.1,-200
0.182000,906.4,119.9,1616.9,157.1,3482.8,210.5,854.7,1572.8,3451.4,0,45,-200
0.184000,902.5,95.5,1626.6,144.5,3478.9,216.3,853.7,1571.8,3451.7,0,44.5,-200
