time,f1,b1,f2,b2,f3,b3,f1p,f2p,f3p,f0,intensity,harmonicity
0.025000,571.4,71.7,1573.6,108.9,2106.6,126.8,577.5,1565.5,2132.7,119.8,68,7.5
0.027000,580.4,72.9,1566.5,113.9,2106.9,120.6,579.1,1563.9,2133.3,119.8,68,8
0.029000,590.4,74.2,1553.9,118.3,2112.3,111.0,581.6,1561.5,2134.3,119.8,68,8.9
0.031000,595.8,70.1,1545.0,115.4,2120.9,100.2,585,1558.1,2135.7,119.8,68.1,10.1
0.033000,599.1,64.8,1541.4,110.3,2131.1,92.6,589.3,1553.9,2137.4,119.8,68.1,11.2
0.035000,605.3,63.9,1541.7,106.7,2142.0,92.4,594.3,1549.1,2139.4,119.8,68.1,12.2
0.037000,614.1,64.2,1542.8,101.9,2152.1,96.9,599.9,1543.8,2141.7,119.8,68.2,12.9
0.039000,619.7,61.6,1541.6,95.0,2161.1,99.1,606,1538.1,2144.2,119.8,68.2,13.7
0.041000,620.8,59.0,1536.4,89.9,2167.2,97.9,612.4,1532.3,2146.9,119.8,68.3,14.3
0.043000,622.2,60.3,1526.3,86.9,2169.7,97.8,618.9,1526.4,2149.7,119.8,68.4,14.9
0.045000,626.3,63.8,1516.1,83.8,2168.6,98.7,625.5,1520.8,2152.6,119.8,68.4,15.3
0.047000,629.7,63.5,1510.7,80.0,2167.8,97.6,632,1515.4,2155.6,119.8,68.5,15.5
0.049000,630.8,60.3,1508.9,78.8,2169.5,95.7,638.1,1510.5,2158.5,119.8,68.6,15.4
0.051000,631.4,60.3,1509.0,84.5,2171.9,98.1,643.9,1506.2,2161.4,119.8,68.7,15.4
0.053000,633.5,63.8,1509.6,97.2,2173.3,105.5,649.2,1502.7,2164.2,119.8,68.7,15.3
0.055000,636.1,64.4,1510.5,104.0,2174.2,109.6,653.8,1499.9,2166.9,119.8,68.7,15.4
0.057000,638.0,61.0,1512.1,97.8,2176.0,105.9,657.8,1498,2169.5,119.9,68.7,15.8
0.059000,640.3,59.2,1514.0,86.2,2177.6,99.8,661,1497,2171.9,119.9,68.7,16.4
0.061000,644.0,62.4,1513.3,77.5,2176.5,95.7,663.4,1496.9,2174.3,119.9,68.6,17
0.063000,648.6,66.2,1509.5,71.5,2173.8,92.4,665.1,1497.6,2176.6,119.9,68.4,17.5
0.065000,650.9,65.8,1505.4,67.9,2173.0,90.5,666,1499.1,2178.8,119.9,68.2,17.8
0.067000,651.9,65.5,1503.1,68.9,2174.2,94.0,666.2,1501.3,2180.9,119.9,68,17.7
0.069000,654.3,69.6,1501.9,78.0,2175.2,107.1,665.7,1504,2183.1,120,67.7,17.3
0.071000,657.7,74.8,1500.6,92.1,2175.7,126.5,664.7,1507.3,2185.4,120,67.5,16.8
0.073000,660.0,75.8,1501.7,99.4,2180.7,145.3,663.2,1510.8,2187.8,120,67.2,16.3
0.075000,660.8,74.8,1509.1,93.4,2192.1,166.0,661.3,1514.5,2190.4,120,66.9,15.9
0.077000,662.6,76.8,1519.2,83.0,2205.6,205.7,659.3,1518.2,2193.4,120.1,66.6,15.6
0.079000,667.6,79.6,1526.3,73.7,2213.9,282.1,657.1,1521.8,2196.7,120.1,66.3,15.3
0.081000,672.4,79.0,1528.5,70.1,2206.3,361.1,655,1525.1,2200.4,120.1,66.1,15
0.083000,675.2,78.4,1529.0,74.7,2191.6,369.5,653.1,1528,2204.7,120.2,65.8,14.7
0.085000,677.4,81.8,1528.3,93.3,2184.8,308.5,651.5,1530.4,2209.7,120.2,65.5,14.4
0.087000,679.4,86.7,1521.8,132.2,2179.4,259.0,650.3,1532.2,2215.3,120.2,65.3,14.1
0.089000,679.0,89.2,1500.8,191.3,2173.9,232.3,649.6,1533.3,2221.8,120.3,65,13.8
0.091000,676.0,90.9,1474.8,241.0,2175.2,229.1,649.6,1533.7,2229.1,120.3,64.6,13.5
0.093000,672.9,95.9,1468.5,268.8,2191.3,261.9,650.2,1533.4,2237.3,120.4,64.3,13.1
0.095000,673.1,102.9,1496.5,260.1,2233.5,320.1,651.6,1532.5,2246.5,120.5,63.9,12.9
0.097000,674.9,106.9,1528.9,232.2,2280.9,329.0,653.8,1530.9,2256.7,120.5,63.4,12.7
0.099000,674.9,111.5,1555.7,216.1,2308.7,303.5,656.8,1528.8,2268,120.6,63,12.5
0.101000,673.0,120.3,1577.0,208.8,2323.2,292.0,660.6,1526.3,2280.3,120.6,62.5,12.4
0.103000,670.6,136.2,1588.3,197.9,2336.0,304.6,665.2,1523.4,2293.7,120.7,62,12.3
0.105000,669.8,150.9,1580.3,182.4,2347.2,335.5,670.5,1520.5,2308.1,120.8,61.5,12.1
0.107000,670.9,158.3,1560.2,169.7,2356.8,357.2,676.4,1517.5,2323.5,120.8,61.1,11.9
0.109000,671.6,170.7,1533.7,167.1,2371.7,340.3,683,1514.7,2340,120.9,60.6,11.6
0.111000,669.9,201.3,1503.5,177.1,2392.9,299.4,690.1,1512.1,2357.4,121,60.2,11.3
0.113000,665.7,248.8,1474.3,181.9,2411.5,266.5,697.6,1510.1,2375.6,121,59.8,11.1
0.115000,665.2,293.0,1468.1,167.1,2417.7,259.0,705.4,1508.7,2394.6,121.1,59.4,10.9
0.117000,668.1,347.5,1482.4,150.8,2418.6,274.4,713.5,1508,2414.4,121.1,59,10.8
0.119000,665.5,457.3,1505.7,137.4,2427.1,308.9,721.6,1508.1,2434.7,121.1,58.6,10.8
0.121000,650.0,624.5,1524.1,119.0,2439.6,339.5,729.8,1509.2,2455.6,121.2,58.2,10.9
0.123000,644.1,828.2,1533.7,97.1,2446.9,350.4,738,1511.1,2476.8,121.2,57.8,10.9
0.125000,706.8,1012.2,1538.2,86.2,2456.2,353.3,745.9,1514.1,2498.3,121.2,57.5,10.8
0.127000,793.3,1155.9,1541.5,86.5,2472.7,361.9,753.7,1517.9,2520,121.2,57.2,10.6
0.129000,816.7,1333.7,1542.6,89.3,2491.7,377.3,761.2,1522.7,2541.8,121.2,56.9,10.4
0.131000,748.4,1519.8,1539.8,87.8,2506.3,391.4,768.4,1528.2,2563.5,121.2,56.6,10
0.133000,670.1,1628.6,1531.2,81.1,2524.3,405.2,775.3,1534.3,2585,121.1,56.3,9.8
0.135000,719.2,1613.2,1519.0,71.5,2559.2,429.4,781.8,1541,2606.2,121.1,56,9.6
0.137000,845.3,1486.7,1512.1,65.2,2611.1,450.7,787.9,1547.9,2627,121,55.7,12.8
0.139000,935.4,1322.8,1511.9,64.6,2661.9,439.4,793.7,1555,2647.3,121,55.3,19.6
0.141000,962.6,1196.9,1516.3,69.1,2689.4,412.2,799.2,1562.1,2667.1,120.9,54.9,24.6
0.143000,946.6,1117.3,1525.1,81.4,2707.6,403.2,804.4,1568.8,2686.1,120.8,54.5,23
0.145000,895.6,1061.4,1541.4,108.0,2736.7,430.1,809.3,1575,2704.5,120.7,53.9,9.6
0.147000,849.9,885.4,1570.0,145.3,2781.5,464.9,814.1,1580.6,2722,120.6,53.3,-22.2
0.149000,830.9,631.9,1607.6,163.7,2828.2,462.1,818.7,1585.2,2738.7,120.4,52.7,-69.2
0.151000,820.3,484.6,1620.7,142.8,2841.2,416.5,823.3,1588.8,2754.5,120.3,52.1,-121.2
0.153000,812.2,403.6,1611.8,109.8,2823.0,357.8,827.7,1591.2,2769.4,120.2,51.4,-168.1
0.155000,805.8,333.7,1601.9,88.4,2798.9,306.0,832.2,1592.2,2783.3,120.1,50.7,-200
0.157000,803.9,276.4,1598.1,82.7,2783.1,268.8,836.7,1591.9,2796.3,120,50,-213.4
0.159000,811.3,238.3,1601.3,94.5,2772.1,245.8,841.2,1590.1,2808.3,119.9,49.3,-215.1
0.161000,829.1,224.0,1611.2,129.0,2767.7,233.7,845.8,1586.9,2819.4,119.8,48.5,-210.1
0.163000,853.7,229.8,1620.3,193.2,2775.7,219.1,850.5,1582.4,2829.6,119.7,47.8,-203.4
0.165000,871.8,264.8,1607.8,254.8,2792.4,197.0,855.3,1576.5,2838.9,119.6,47,-200
0.167000,873.4,334.9,1580.4,253.5,2811.6,180.1,860.1,1569.5,2847.3,119.5,46.3,-200
0.169000,855.4,450.2,1564.3,209.2,2835.2,185.0,865,1561.4,2854.8,119.4,45.6,-200
0.171000,816.2,584.3,1559.1,173.5,2859.5,208.4,869.8,1552.5,2861.6,119.4,45.2,-200
0.173000,756.4,712.2,1554.0,160.3,2883.3,218.8,874.6,1543.1,2867.6,119.3,44.5,-200
0.175000,673.1,829.7,1540.1,177.9,2895.4,195.4,879.3,1533.3,2872.9,119.3,43.5,-200
0.177000,576.4,931.2,1512.8,221.1,2892.4,169.1,883.8,1523.3,2877.5,119.3,42.5,-200
0.179000,534.1,1222.8,1484.3,280.8,2883.7,155.5,888,1513.6,2881.5,119.3,41.8,-200
0.181000,901.3,1728.6,1461.9,348.7,2877.5,152.1,892,1504.2,2884.9,119.3,41,-200
0.183000,1212.7,1347.9,1442.0,400.1,2874.5,157.4,895.6,1495.5,2887.8,119.3,39.9,-200
0.185000,1277.2,1008.7,1443.6,412.7,2875.8,176.3,898.7,1487.7,2890.1,0,39.3,-200
0.187000,1185.9,851.2,1476.1,366.4,2887.0,226.5,901.4,1481,2892,0,38.4,-200
0.189000,1008.4,847.8,1485.3,312.5,2914.9,310.3,903.5,1475.6,2893.4,0,37.6,-200
0.191000,838.6,646.1,1482.7,308.2,2927.9,366.9,905.1,1471.6,2894.5,0,37.2,-200
0.193000,814.5,429.9,1488.8,327.8,2905.4,401.7,906,1469.2,2895.1,0,37.1,-200
0.195000,830.2,319.9,1515.9,338.7,2881.7,447.2,906.4,1468.4,2895.3,0,36.3,-200
