time,f1,b1,f2,b2,f3,b3,f1p,f2p,f3p,f0,intensity,harmonicity
0.025000,588.4,121.5,1491.9,91.9,2052.2,108.8,620.9,1471.4,2046.5,114.7,70.1,-1.5
0.027000,591.2,128.5,1480.4,100.1,2051.3,122.8,621.8,1470.6,2048.7,114.7,70.1,-1.1
0.029000,601.3,125.7,1473.5,102.1,2052.6,132.9,623.4,1469.3,2052.3,114.7,70.1,-0.3
0.031000,613.4,122.1,1468.1,103.7,2057.4,140.9,625.6,1467.5,2057.1,114.7,70.2,0.8
0.033000,623.7,134.3,1459.2,110.1,2063.5,148.4,628.3,1465.3,2062.9,114.7,70.4,2.1
0.035000,634.3,155.2,1449.6,112.0,2068.4,143.8,631.5,1462.7,2069.6,114.7,70.6,3.4
0.037000,644.8,160.7,1445.8,103.7,2072.6,127.9,635.1,1459.8,2076.8,114.7,70.8,4.9
0.039000,653.0,152.5,1446.3,92.7,2077.9,113.2,639.1,1456.6,2084.3,114.7,71.1,6.7
0.041000,659.8,152.0,1447.9,85.0,2087.2,107.1,643.4,1453.1,2091.8,114.8,71.3,8.5
0.043000,668.0,169.0,1448.2,80.8,2099.8,109.2,648,1449.5,2099,114.8,71.5,10.2
0.045000,676.6,185.3,1446.3,75.6,2109.0,110.0,652.7,1445.8,2105.8,114.9,71.7,11.6
0.047000,680.6,183.6,1443.1,69.3,2111.4,106.2,657.5,1442,2111.8,115,71.9,12.6
0.049000,681.7,178.6,1440.6,65.8,2112.9,102.5,662.3,1438.3,2117,115,72,13.4
0.051000,684.7,185.9,1439.0,68.3,2118.9,103.2,667,1434.6,2121.2,115.1,72.1,14
0.053000,690.3,191.6,1436.9,72.3,2126.6,105.2,671.7,1431,2124.5,115.2,72.1,14.4
0.055000,692.9,177.4,1432.8,70.6,2129.7,103.1,676.2,1427.6,2126.7,115.4,72.2,14.8
0.057000,691.7,157.5,1427.9,66.0,2129.3,100.0,680.5,1424.3,2128.1,115.5,72.3,14.9
0.059000,689.9,150.7,1422.6,65.6,2129.3,100.7,684.6,1421.2,2128.8,115.6,72.3,15
0.061000,690.0,158.1,1416.6,70.8,2130.9,103.6,688.4,1418.3,2128.9,115.8,72.4,14.8
0.063000,687.0,155.9,1409.9,73.1,2129.9,104.5,692,1415.7,2128.8,115.9,72.4,14.6
0.065000,680.8,142.2,1405.1,68.2,2127.4,101.9,695.2,1413.1,2128.7,116.1,72.4,14.3
0.067000,675.4,136.1,1403.4,63.4,2127.9,101.3,698.2,1410.8,2128.9,116.3,72.4,13.8
0.069000,673.8,144.3,1403.0,64.1,2132.6,108.1,700.8,1408.7,2129.8,116.4,72.4,13.2
0.071000,677.7,153.2,1403.8,66.8,2139.4,114.7,703.1,1406.7,2131.6,116.6,72.4,12.4
0.073000,682.6,150.4,1406.7,65.9,2144.8,112.7,705.1,1404.8,2134.8,116.8,72.4,11.8
0.075000,686.5,150.2,1410.6,65.2,2149.2,110.2,706.8,1403,2139.5,117,72.3,11.3
0.077000,691.7,166.7,1413.4,70.8,2152.8,117.8,708.2,1401.3,2146,117.2,72.1,11
0.079000,697.4,190.3,1412.0,82.9,2153.5,140.6,709.3,1399.6,2154.5,117.3,71.9,10.9
0.081000,696.7,196.8,1405.6,95.2,2150.9,172.9,710.1,1398.1,2165.2,117.5,71.7,10.9
0.083000,693.0,189.3,1399.4,102.6,2153.2,198.6,710.7,1396.5,2178,117.7,71.4,10.9
0.085000,696.2,187.1,1395.8,111.8,2170.1,226.1,711.1,1395,2193,117.9,71.2,10.8
0.087000,709.4,193.8,1392.8,125.0,2203.7,260.4,711.3,1393.6,2210.1,118,70.9,10.8
0.089000,721.9,196.3,1388.5,131.7,2236.8,282.3,711.3,1392.3,2229.1,118.2,70.7,10.8
0.091000,726.2,194.5,1384.7,129.0,2256.8,290.4,711.2,1391,2249.9,118.3,70.4,10.8
0.093000,729.1,197.9,1384.7,123.2,2269.3,299.0,711.1,1389.9,2272.2,118.5,70.3,10.8
0.095000,737.5,202.6,1387.4,115.0,2282.7,315.7,711,1388.9,2295.8,118.6,70.1,10.6
0.097000,743.4,200.9,1388.8,106.2,2304.2,342.8,711,1388.2,2320.2,118.8,70.1,10.3
0.099000,741.7,198.2,1386.6,102.8,2344.3,383.5,711.1,1387.7,2345.1,118.9,70.2,10
0.101000,741.9,194.5,1380.5,103.9,2404.1,431.2,711.6,1387.5,2370.2,119.1,70.3,9.5
0.103000,747.0,185.1,1374.3,102.6,2449.1,458.3,712.4,1387.6,2395.1,119.2,70.4,9.1
0.105000,748.4,171.6,1372.7,96.9,2461.5,472.0,713.7,1388.1,2419.6,119.3,70.4,8.5
0.107000,744.8,160.9,1376.5,90.9,2455.7,485.0,715.6,1389.1,2443.2,119.4,70.3,7.7
0.109000,739.1,158.0,1384.3,87.3,2447.5,497.3,718.3,1390.5,2465.7,119.6,70,6.6
0.111000,732.2,170.4,1396.7,88.3,2446.4,506.9,721.8,1392.5,2486.9,119.7,69.4,5.5
0.113000,725.2,202.4,1412.8,95.6,2459.9,511.5,726.4,1395,2506.6,119.8,68.7,4.8
0.115000,719.9,242.1,1430.5,109.4,2494.1,500.5,731.9,1398.1,2524.7,120,67.9,4.7
0.117000,716.5,269.5,1439.8,125.4,2545.3,429.9,738.7,1401.7,2541.2,120.1,67.2,5.7
0.119000,705.6,296.0,1425.1,130.6,2583.8,299.5,746.8,1406,2556,120.3,66.6,7.4
0.121000,678.9,328.7,1396.6,118.5,2594.4,201.3,756.1,1410.8,2569.1,120.4,66.1,9.4
0.123000,656.8,360.6,1384.0,113.2,2592.6,167.7,766.9,1416.2,2580.6,120.6,65.8,11.1
0.125000,653.8,423.2,1391.4,128.4,2590.4,173.2,779,1422.1,2590.7,120.8,65.5,12.1
0.127000,691.7,524.8,1413.5,157.5,2591.3,198.0,792.4,1428.5,2599.4,121,65.1,12
0.129000,788.8,594.3,1435.9,186.7,2596.9,219.7,807.2,1435.3,2607,121.2,64.7,11.3
0.131000,882.5,575.0,1448.8,209.6,2603.8,235.4,823.1,1442.4,2613.6,121.4,64.2,10.2
0.133000,921.4,539.1,1455.4,221.5,2606.6,257.7,840.1,1449.8,2619.4,121.7,63.5,9.3
0.135000,935.2,514.0,1467.5,228.0,2606.8,296.7,858.1,1457.5,2624.5,121.9,62.7,8.8
0.137000,942.9,490.6,1490.5,224.6,2612.8,330.8,876.7,1465.2,2629,122.2,61.8,12.2
0.139000,947.9,473.3,1511.4,200.7,2633.0,295.8,895.9,1473,2633.2,122.4,60.8,19.4
0.141000,954.2,494.1,1509.0,174.6,2653.3,209.6,915.2,1480.7,2637.1,122.7,59.7,25
0.143000,957.7,544.3,1485.5,161.4,2660.2,153.6,934.6,1488.2,2640.7,123,58.5,23.8
0.145000,955.4,594.5,1460.7,151.0,2658.9,128.6,953.6,1495.5,2644.2,123.3,57.2,10.6
0.147000,965.5,621.6,1452.4,141.2,2654.1,129.9,972,1502.4,2647.5,123.6,55.7,-21.3
0.149000,1005.1,581.5,1467.1,133.7,2648.9,162.7,989.4,1508.8,2650.6,123.9,54.2,-68.4
0.151000,1053.5,486.5,1493.3,125.4,2650.3,242.0,1005.7,1514.8,2653.6,124.2,53,-120.7
0.153000,1083.7,421.5,1514.0,119.3,2671.5,353.2,1020.4,1520.1,2656.3,124.5,51.6,-168
0.155000,1091.1,399.6,1527.6,116.4,2702.9,433.8,1033.3,1524.7,2658.7,124.8,49.9,-200
0.157000,1073.1,424.1,1534.3,121.2,2707.8,464.8,1044.3,1528.5,2660.8,125.1,48.7,-213.5
0.159000,1038.0,494.1,1537.8,140.5,2684.6,485.2,1053,1531.6,2662.5,0,48,-215.2
0.161000,996.9,594.7,1544.1,179.5,2647.0,508.6,1059.4,1533.8,2663.7,0,46.8,-210.1
0.163000,967.2,659.2,1556.7,228.3,2614.5,519.8,1063.2,1535.2,2664.5,0,45.8,-203.4
0.165000,961.2,645.7,1560.7,271.9,2603.2,488.0,1064.5,1535.6,2664.8,0,45.2,-200
