time,f1,b1,f2,b2,f3,b3,f1p,f2p,f3p,f0,intensity,harmonicity
0.025000,867.5,134.8,1628.3,240.8,2442.3,263.6,856,1650.2,2416.7,233.9,77.4,14.2
0.027000,870.2,131.6,1621.6,237.8,2446.7,302.7,858.3,1648.3,2422.7,234.3,77.5,15
0.029000,872.6,130.0,1618.6,238.4,2454.7,342.4,861.9,1645.2,2432.4,234.6,77.6,15.7
0.031000,875.2,128.5,1623.0,235.1,2461.3,344.9,866.6,1641.2,2445.3,235,77.6,16.2
0.033000,878.2,126.5,1630.2,227.3,2467.6,317.8,872.4,1636.5,2460.9,235.4,77.6,16.7
0.035000,880.7,125.8,1634.6,221.8,2477.1,296.9,878.8,1631.6,2478.4,235.9,77.6,17.3
0.037000,883.0,126.0,1636.2,219.1,2488.6,293.0,885.6,1626.7,2496.9,236.3,77.6,18.1
0.039000,885.3,125.8,1637.1,214.7,2498.6,301.4,892.4,1622.4,2515.8,236.8,77.5,19
0.041000,887.8,124.7,1640.4,208.2,2505.6,301.4,899.1,1618.8,2534,237.3,77.5,19.9
0.043000,891.0,124.3,1647.5,202.8,2516.5,272.7,905.2,1616.5,2550.9,237.9,77.4,20.4
0.045000,895.5,122.9,1654.3,200.5,2531.1,233.4,910.7,1615.7,2565.6,238.4,77.3,20.5
0.047000,901.2,117.4,1656.2,202.2,2549.3,207.9,915.1,1616.7,2577.8,239,77.2,19.8
0.049000,907.3,108.2,1653.0,211.2,2573.6,197.8,918.6,1619.5,2586.8,239.6,77.1,18.5
0.051000,912.1,97.6,1646.5,227.7,2596.3,195.5,920.9,1624.2,2592.4,240.2,76.9,17
0.053000,915.8,87.8,1639.5,252.3,2606.6,193.5,922.2,1630.9,2594.7,240.8,76.8,15.7
0.055000,919.0,82.1,1637.3,272.2,2598.0,188.1,922.5,1639.3,2593.7,241.5,76.7,15
0.057000,921.5,79.4,1638.5,275.0,2581.4,176.5,921.9,1649.3,2589.6,242.2,76.5,15
0.059000,922.6,78.3,1639.1,268.6,2570.6,160.7,920.8,1660.5,2583,242.8,76.3,15.5
0.061000,922.2,78.0,1638.2,271.1,2570.6,148.2,919.3,1672.6,2574.5,243.6,76.1,16.3
0.063000,921.4,78.8,1638.4,293.5,2576.4,144.2,917.7,1685.2,2564.8,244.3,75.9,17
0.065000,921.4,82.7,1645.7,344.1,2581.5,155.4,916.3,1697.9,2554.5,245,75.7,17.4
0.067000,922.7,91.2,1663.2,437.9,2580.6,179.9,915.4,1710.4,2544.7,245.7,75.5,17.3
0.069000,925.7,105.2,1686.4,612.2,2569.0,197.3,915.3,1722.2,2535.9,246.5,75.3,17
0.071000,931.2,122.0,1705.8,894.9,2550.9,178.9,916.2,1732.9,2529,247.2,75.1,16.6
0.073000,939.6,137.5,1760.3,1275.8,2536.7,138.7,918.2,1742.5,2524.5,248,74.9,16.2
0.075000,943.6,142.2,1827.8,1241.0,2532.2,108.6,921.5,1750.5,2523.1,248.8,74.7,16.1
0.077000,939.7,134.8,1794.9,833.5,2532.4,90.8,926,1757.1,2525,249.5,74.4,16.4
0.079000,935.8,119.9,1773.0,486.6,2532.6,82.6,931.8,1762.1,2530.5,250.3,74.2,17
0.081000,936.0,106.6,1768.1,304.8,2532.7,86.8,938.8,1765.6,2539.5,251,73.9,17.7
0.083000,939.2,95.5,1770.0,212.7,2535.0,108.7,946.8,1767.7,2551.9,251.8,73.6,18.1
0.085000,944.1,89.0,1775.2,176.1,2543.4,154.3,955.5,1768.8,2567.3,252.5,73.3,17.9
0.087000,950.5,88.8,1782.3,167.6,2562.1,219.3,964.7,1769.1,2585.3,253.3,72.9,16.9
0.089000,959.6,96.1,1789.5,179.1,2589.4,275.7,974.1,1769,2605.2,254,72.5,15.2
0.091000,970.6,107.8,1793.7,207.5,2614.0,299.1,983.4,1768.7,2626.4,254.7,72.1,13.3
0.093000,984.1,121.6,1795.6,253.1,2637.9,296.3,992.3,1768.7,2648,255.3,71.6,11.6
0.095000,997.7,134.0,1796.9,297.0,2663.2,269.0,1000.6,1769.1,2669.3,256,71.1,10.5
0.097000,1010.1,145.7,1792.8,310.4,2688.5,220.9,1008,1770.4,2689.4,256.6,70.6,10.4
0.099000,1018.4,161.7,1770.0,280.9,2706.9,172.3,1014.3,1772.7,2707.7,257.2,69.9,10.8
0.101000,1018.6,185.4,1735.9,237.0,2714.2,149.1,1019.6,1776.1,2723.5,257.7,69.2,11.4
0.103000,1010.0,222.9,1708.4,200.8,2710.3,151.8,1023.7,1780.6,2736.2,258.2,68.4,12
0.105000,997.5,275.3,1700.4,189.4,2699.3,178.3,1026.7,1786.2,2745.5,258.7,67.5,12.1
0.107000,991.1,335.3,1715.1,209.4,2695.9,242.7,1028.8,1792.8,2751.2,259.1,66.5,15
0.109000,1005.8,370.2,1768.2,250.8,2738.3,359.6,1030.2,1800.1,2753,259.5,65.5,21
0.111000,1023.1,360.0,1829.0,245.6,2821.8,399.0,1031,1807.7,2751,259.9,64.4,25.2
0.113000,1034.9,389.9,1858.4,234.5,2851.0,345.2,1031.7,1815.5,2745.6,260.2,63.5,22.7
0.115000,1051.2,500.1,1869.3,263.4,2830.4,316.8,1032.4,1822.9,2736.8,260.5,62.4,8.8
0.117000,1074.8,620.0,1876.5,308.9,2787.3,309.8,1033.7,1829.6,2725.3,260.7,61.5,-23.1
0.119000,1095.4,609.3,1887.7,334.1,2734.2,293.8,1035.7,1835.1,2711.4,260.9,60.5,-69.9
0.121000,1093.8,490.4,1887.4,320.7,2683.2,264.7,1038.8,1839.2,2695.8,261.1,59.8,-121.6
0.123000,1084.1,368.6,1858.5,275.0,2634.7,231.8,1043.2,1841.5,2679.1,0,59.3,-168.3
0.125000,1082.9,295.1,1823.4,216.3,2606.7,223.0,1049,1841.7,2661.7,0,59.2,-200
0.127000,1092.1,270.1,1807.0,172.7,2615.7,262.1,1056.4,1839.9,2644.4,0,59.5,-213.4
0.129000,1108.5,274.0,1806.9,146.0,2655.7,312.9,1065.3,1835.9,2627.4,0,59.8,-215
0.131000,1121.7,300.5,1811.5,142.6,2668.1,326.7,1075.8,1829.8,2611.3,0,59.9,-210
0.133000,1121.8,387.2,1818.8,182.2,2627.0,338.1,1087.5,1821.8,2596.5,0,59.8,-203.3
0.135000,1075.9,542.8,1817.7,278.5,2548.4,354.6,1100.2,1812.2,2583,0,59.1,-200
0.137000,953.1,579.3,1785.5,380.0,2468.7,349.2,1113.6,1801.4,2571.1,0,58.2,-200
0.139000,914.9,449.4,1754.3,373.8,2428.9,333.0,1127.3,1789.8,2560.9,0,56.9,-200
0.141000,942.7,395.2,1754.1,331.9,2431.1,355.0,1140.9,1777.8,2552.4,0,55.7,-200
0.143000,1007.7,430.4,1770.1,312.7,2473.9,420.8,1153.8,1766.1,2545.3,0,55.1,-200
0.145000,1143.3,472.6,1797.6,298.5,2561.8,464.6,1165.7,1755.1,2539.8,0,54.9,-200
0.147000,1254.8,366.2,1811.2,277.2,2645.3,462.2,1176.1,1745.3,2535.5,0,55.4,-200
0.149000,1299.4,322.2,1801.4,316.2,2673.2,477.2,1184.7,1737.2,2532.4,0,56,-200
0.151000,1311.0,392.3,1763.1,466.7,2615.3,478.6,1191,1731.1,2530.2,0,56.4,-200
0.153000,1305.9,565.4,1671.2,689.5,2530.2,393.8,1194.9,1727.3,2529,0,56.3,-200
0.155000,1242.5,711.6,1643.9,830.4,2485.6,319.4,1196.2,1726,2528.6,0,55.7,-200
