time,f1,b1,f2,b2,f3,b3,f1p,f2p,f3p,f0,intensity,harmonicity
0.025000,874.0,139.3,1742.5,284.9,2648.6,130.1,900.5,1727.8,2670.1,246.7,76,17.7
0.027000,883.5,131.2,1747.9,277.4,2655.2,135.6,901.2,1730.7,2671.9,247.2,75.9,17.4
0.029000,893.8,124.3,1747.9,262.6,2667.0,144.9,902.3,1735.4,2674.8,247.7,75.9,17
0.031000,903.3,121.8,1744.8,240.3,2677.5,151.1,904,1741.7,2678.6,248.3,75.9,16.6
0.033000,913.3,122.4,1745.0,218.5,2684.8,152.7,906.4,1749.2,2682.7,248.9,75.9,16.2
0.035000,922.7,123.1,1751.1,200.2,2690.6,151.5,909.6,1757.6,2686.9,249.5,75.9,15.9
0.037000,931.0,122.0,1760.9,180.0,2698.7,150.3,913.6,1766.5,2690.8,250.2,75.9,15.8
0.039000,936.8,118.6,1769.5,159.0,2709.7,150.8,918.6,1775.5,2694.1,250.9,75.8,15.7
0.041000,939.6,114.8,1773.8,145.3,2718.3,152.3,924.5,1784.1,2696.3,251.6,75.7,15.7
0.043000,941.7,113.3,1775.1,141.5,2721.4,152.1,931.5,1792,2697.2,252.4,75.6,15.7
0.045000,944.7,117.0,1774.6,150.4,2719.1,149.7,939.4,1799,2696.8,253.1,75.4,15.7
0.047000,949.4,126.6,1774.4,175.7,2713.8,146.6,948.1,1804.6,2695.1,253.9,75.2,15.6
0.049000,955.5,140.7,1778.4,229.1,2705.0,143.2,957.5,1808.7,2692.2,254.7,75,15.6
0.051000,962.8,151.7,1791.3,320.3,2688.7,135.8,967.4,1811.2,2688.2,255.5,74.8,15.5
0.053000,973.5,154.7,1822.0,455.7,2665.3,116.6,977.5,1812.1,2683.7,256.3,74.6,15.4
0.055000,985.9,148.0,1867.5,553.7,2648.1,91.5,987.6,1811.4,2679.1,257.1,74.4,15.2
0.057000,994.5,134.7,1884.6,565.1,2638.9,72.2,997.4,1809.3,2674.7,257.9,74.3,15
0.059000,998.3,121.4,1855.3,532.1,2634.9,64.8,1006.7,1806,2671.3,258.7,74.1,14.7
0.061000,1000.7,111.7,1812.1,486.9,2634.4,72.7,1015.2,1801.7,2669.1,259.5,74,14.3
0.063000,1005.6,104.3,1776.7,437.7,2637.5,103.2,1022.8,1796.8,2668.8,260.2,73.8,14
0.065000,1014.6,99.6,1762.7,395.5,2647.6,164.5,1029.3,1791.4,2670.6,260.9,73.7,13.6
0.067000,1027.1,97.4,1764.6,352.7,2672.2,265.3,1034.8,1786,2674.7,261.6,73.5,13.1
0.069000,1039.9,97.4,1768.0,301.5,2713.1,390.2,1039.2,1780.7,2681.2,262.2,73.2,12.5
0.071000,1048.2,100.1,1762.6,260.4,2746.4,450.5,1042.7,1775.9,2690,262.8,72.9,11.9
0.073000,1051.5,107.4,1750.6,232.2,2758.8,388.4,1045.4,1771.6,2700.8,263.3,72.6,11.4
0.075000,1052.4,123.1,1747.0,215.0,2763.7,268.7,1047.5,1768.2,2713.3,263.7,72.1,11
0.077000,1057.8,152.3,1760.3,206.2,2769.3,177.6,1049.2,1765.5,2726.9,264.1,71.6,10.8
0.079000,1069.3,188.8,1780.9,209.7,2775.9,139.1,1050.9,1763.7,2741.1,264.5,70.9,10.7
0.081000,1077.2,211.7,1792.6,231.2,2781.1,139.6,1052.8,1762.6,2755.1,264.7,70.2,10.7
0.083000,1076.3,215.4,1787.6,262.9,2777.0,159.2,1055,1762.3,2768.3,265,69.3,10.6
0.085000,1069.9,208.5,1766.9,275.9,2756.6,176.7,1057.8,1762.4,2779.9,265.1,68.3,10.3
0.087000,1063.8,207.6,1750.0,259.7,2727.6,170.5,1061.2,1762.9,2789.5,265.2,67.2,12.9
0.089000,1058.1,219.4,1748.7,224.7,2705.6,152.6,1065.4,1763.6,2796.4,265.2,66,18.5
0.091000,1053.3,232.3,1754.6,185.3,2694.9,149.8,1070.2,1764.1,2800.3,265.2,64.6,22.4
0.093000,1051.5,242.8,1758.1,157.1,2696.0,170.6,1075.5,1764.4,2801,265.1,63.3,19.8
0.095000,1053.3,255.0,1758.4,147.3,2713.5,217.7,1081.1,1764.2,2798.3,265,62,6
0.097000,1059.2,267.6,1758.7,146.2,2753.4,296.1,1086.8,1763.4,2792.4,264.8,60.7,-25.6
0.099000,1073.6,280.1,1759.7,139.3,2821.3,402.7,1092.1,1761.8,2783.5,264.6,59.6,-71.8
0.101000,1098.3,297.5,1760.7,127.6,2892.9,509.6,1096.8,1759.3,2771.9,264.4,58.6,-122.8
0.103000,1127.2,318.7,1764.3,126.3,2951.4,646.8,1100.6,1756,2758.2,264.1,57.7,-168.8
0.105000,1137.9,331.3,1770.0,139.5,2987.7,873.9,1103.1,1751.8,2742.8,0,57,-200
0.107000,1125.2,335.2,1774.2,163.5,2856.3,1215.4,1104,1746.8,2726.2,0,56.3,-213.2
0.109000,1098.6,329.1,1769.3,192.7,2664.2,1030.3,1103.3,1741,2709.2,0,55.8,-214.8
0.111000,1078.7,308.5,1749.1,208.5,2591.4,767.5,1100.9,1734.6,2692.2,0,55.2,-209.9
0.113000,1078.7,262.0,1722.2,204.2,2565.2,566.6,1096.7,1727.8,2675.7,0,54.9,-203.3
0.115000,1087.0,212.7,1706.4,202.4,2555.4,463.0,1090.9,1720.7,2660.2,0,54.3,-200
0.117000,1088.3,189.6,1698.4,217.3,2554.9,428.6,1083.7,1713.5,2645.9,0,53.9,-200
0.119000,1084.1,201.1,1690.2,239.5,2569.9,438.3,1075.6,1706.4,2633.2,0,53.4,-200
0.121000,1080.3,247.3,1677.9,254.9,2591.5,461.1,1066.7,1699.6,2622.1,0,52.8,-200
0.123000,1079.4,339.2,1661.7,274.2,2602.9,487.5,1057.8,1693.3,2612.6,0,52.3,-200
0.125000,1077.1,464.5,1645.6,302.4,2600.7,518.5,1049.1,1687.6,2604.9,0,52,-200
0.127000,1059.0,553.4,1638.2,329.3,2597.5,543.4,1041.3,1682.8,2598.8,0,51.8,-200
0.129000,1027.2,475.1,1659.4,343.7,2606.4,536.3,1034.6,1678.9,2594.1,0,51.8,-200
0.131000,1009.0,316.0,1699.2,331.9,2624.9,497.6,1029.6,1676,2590.9,0,51.6,-200
0.133000,1003.7,207.6,1730.0,310.8,2643.2,451.9,1026.5,1674.3,2589,0,52,-200
0.135000,1007.9,176.2,1735.6,308.7,2654.2,417.2,1025.4,1673.7,2588.4,0,52.3,-200
