time,f1,b1,f2,b2,f3,b3,f1p,f2p,f3p,f0,intensity,harmonicity
0.025000,725.4,286.4,1408.7,313.4,2708.9,159.3,778,1462.2,2717.7,203.8,72.9,17.4
0.027000,761.5,285.2,1432.9,310.9,2715.4,161.6,779.7,1464.8,2715.9,204.1,72.8,17.3
0.029000,795.6,280.6,1462.0,298.5,2714.6,175.6,782.7,1469.2,2713.1,204.3,72.7,16.9
0.031000,819.2,284.6,1495.0,286.3,2702.9,197.8,786.8,1474.9,2709.2,204.6,72.6,16.3
0.033000,825.0,302.4,1519.5,274.8,2686.6,212.1,792.2,1482,2704.2,204.9,72.5,15.7
0.035000,818.9,320.8,1531.2,257.9,2673.5,209.5,798.9,1490,2698.4,205.3,72.4,15.4
0.037000,814.3,322.7,1530.9,239.1,2669.2,196.7,806.8,1498.6,2691.8,205.6,72.4,15.5
0.039000,816.1,316.3,1523.4,224.6,2676.9,188.8,816,1507.6,2684.5,206,72.3,15.8
0.041000,818.6,320.2,1514.3,212.9,2699.0,191.8,826.4,1516.6,2676.7,206.4,72.3,16.1
0.043000,820.7,335.0,1510.4,202.7,2721.2,198.4,838,1525.2,2668.5,206.8,72.3,16.4
0.045000,829.1,348.4,1513.9,199.8,2726.0,208.2,850.6,1533.3,2660.3,207.3,72.2,16.5
0.047000,849.0,348.8,1523.8,214.1,2705.5,231.0,864.1,1540.5,2652.1,207.7,72.1,16.4
0.049000,873.8,339.3,1536.7,243.9,2663.2,267.8,878.3,1546.6,2644.3,208.2,72,16
0.051000,897.5,333.5,1549.9,281.7,2606.6,305.3,893,1551.6,2637,208.7,71.9,15.6
0.053000,916.7,341.1,1559.9,309.9,2570.6,320.4,907.9,1555.4,2630.4,209.2,71.7,15.3
0.055000,933.6,362.0,1565.8,323.1,2571.6,321.3,922.8,1557.9,2624.9,209.8,71.6,15.2
0.057000,947.3,384.0,1565.0,323.0,2595.9,315.9,937.4,1559.2,2620.5,210.4,71.4,15.4
0.059000,959.2,387.6,1561.3,314.2,2619.3,298.9,951.2,1559.6,2617.4,211,71.2,15.9
0.061000,971.0,363.5,1558.3,298.3,2628.7,264.9,964.1,1559.1,2615.9,211.6,71.1,16.5
0.063000,980.3,323.6,1555.0,276.7,2624.0,223.8,975.7,1558.1,2616,212.2,70.9,17
0.065000,987.6,285.4,1547.8,254.2,2618.1,186.5,985.8,1556.8,2617.7,212.9,70.8,17.1
0.067000,994.8,268.7,1538.9,248.6,2622.3,167.9,994.2,1555.6,2621,213.6,70.7,16.7
0.069000,1001.8,269.5,1534.9,264.3,2635.0,170.7,1000.7,1554.6,2625.9,214.3,70.6,16
0.071000,1006.1,267.0,1540.5,287.9,2650.1,186.2,1005.1,1554.3,2632.4,215.1,70.5,15.2
0.073000,1005.6,251.4,1554.2,299.6,2660.8,195.5,1007.6,1554.9,2640.1,215.9,70.3,14.4
0.075000,1001.9,228.6,1572.5,293.5,2665.3,187.9,1008.2,1556.5,2648.8,216.7,70.2,13.8
0.077000,995.8,210.5,1591.3,272.5,2664.2,173.4,1006.9,1559.5,2658.4,217.5,70,13.5
0.079000,987.1,203.0,1605.0,242.9,2660.2,166.9,1004,1563.9,2668.5,218.4,69.7,13.5
0.081000,975.5,204.4,1609.4,210.1,2652.6,170.6,999.9,1569.8,2678.7,219.3,69.5,13.5
0.083000,965.4,207.9,1603.2,188.6,2640.3,176.6,994.7,1577.2,2688.8,220.2,69.2,13.4
0.085000,962.0,220.9,1590.0,198.9,2634.7,186.2,988.9,1586,2698.3,221.2,68.9,13.3
0.087000,971.6,282.5,1573.8,293.3,2663.5,231.0,982.9,1596.1,2706.8,222.1,68.7,12.9
0.089000,997.9,395.2,1546.6,507.0,2714.1,311.1,977.1,1607.4,2714.2,223.1,68.4,12.5
0.091000,1038.9,496.7,1516.6,795.0,2756.1,386.1,971.8,1619.6,2720.1,224.1,68.2,12.1
0.093000,1034.1,531.2,1571.3,872.4,2783.8,425.7,967.5,1632.4,2724.2,225.1,68,11.6
0.095000,985.2,508.6,1665.6,675.6,2804.3,433.9,964.4,1645.6,2726.5,226.2,67.8,11.1
0.097000,954.9,416.8,1716.1,448.4,2804.3,412.2,962.9,1658.8,2726.9,227.2,67.6,10.4
0.099000,951.5,318.6,1727.7,300.1,2773.2,373.6,963.1,1671.9,2725.2,228.3,67.3,9.6
0.101000,957.8,241.6,1723.2,216.1,2717.1,317.7,965.2,1684.4,2721.7,229.3,67.1,8.9
0.103000,966.6,197.9,1717.3,183.4,2675.7,263.5,969.1,1696.2,2716.4,230.4,66.7,8.3
0.105000,975.7,176.2,1717.2,181.5,2664.4,225.2,974.8,1707,2709.6,231.5,66.3,8.1
0.107000,980.7,166.0,1721.7,194.5,2666.5,193.7,982.2,1716.7,2701.5,232.6,65.8,8.4
0.109000,981.7,162.2,1723.5,208.5,2660.5,159.7,991,1725,2692.5,233.7,65.3,9.2
0.111000,982.8,165.0,1716.8,220.9,2645.2,128.2,1000.9,1732,2683,234.8,64.6,10.1
0.113000,985.9,174.5,1706.3,237.3,2634.8,113.7,1011.7,1737.5,2673.3,235.9,63.9,10.9
0.115000,990.7,193.1,1700.6,272.6,2636.3,119.5,1022.9,1741.6,2663.8,237,63.1,11.3
0.117000,997.3,219.8,1702.2,331.6,2647.2,140.0,1034.2,1744.4,2655,238.1,62.3,14.7
0.119000,1011.5,249.5,1708.0,416.9,2656.5,162.3,1045.2,1745.9,2647.2,239.1,61.4,21.1
0.121000,1046.4,273.7,1728.4,558.9,2659.6,187.3,1055.5,1746.2,2640.7,240.2,60.5,25.7
0.123000,1092.0,258.7,1790.1,687.6,2662.3,220.1,1064.8,1745.6,2635.8,241.3,59.5,23.6
0.125000,1120.8,225.1,1842.1,596.4,2672.4,245.2,1072.8,1744.1,2632.5,242.3,58.6,9.9
0.127000,1131.3,221.6,1808.0,389.0,2674.9,237.9,1079.4,1741.9,2631.2,243.3,57.7,-22.1
0.129000,1131.9,235.1,1757.9,244.3,2659.7,216.5,1084.4,1739.2,2631.6,244.3,56.8,-69.1
0.131000,1125.6,241.3,1722.9,162.5,2639.9,188.5,1087.8,1736.2,2633.9,245.3,56,-121.1
0.133000,1110.3,230.5,1703.7,125.4,2628.8,165.5,1089.5,1733,2637.8,246.2,55.2,-168.1
0.135000,1085.4,198.6,1693.4,108.1,2625.7,148.4,1089.8,1729.7,2643.1,247.1,54.5,-200
0.137000,1062.8,155.2,1691.9,102.4,2631.5,136.3,1088.8,1726.5,2649.5,248,53.8,-213.4
0.139000,1049.2,118.9,1698.8,103.6,2646.5,130.1,1086.8,1723.4,2656.6,248.8,53.1,-215.1
0.141000,1042.2,91.9,1711.6,104.5,2666.8,134.1,1083.9,1720.6,2664.2,249.6,52.4,-210.1
0.143000,1040.7,76.3,1719.3,98.0,2680.7,160.0,1080.6,1718.1,2671.8,250.3,51.8,-203.4
0.145000,1043.4,70.2,1716.3,88.6,2678.7,227.2,1077.1,1716,2679,251,51.3,-200
0.147000,1050.5,74.2,1710.1,83.3,2661.8,318.6,1073.8,1714.2,2685.5,251.6,50.9,-200
0.149000,1064.4,87.4,1709.6,82.4,2658.7,359.5,1070.9,1712.8,2690.9,252.2,50.5,-200
0.151000,1087.6,104.0,1716.9,84.1,2684.2,331.0,1068.6,1711.7,2695,252.7,50.2,-200
0.153000,1107.5,110.7,1727.6,87.6,2712.8,280.1,1067.2,1711.1,2697.5,253.2,49.9,-200
0.155000,1108.4,104.9,1736.5,95.6,2728.7,243.4,1066.7,1710.9,2698.4,253.6,49.5,-200
