time,f1,b1,f2,b2,f3,b3,f1p,f2p,f3p,f0,intensity,harmonicity
0.025000,738.0,330.5,1329.1,433.5,2796.6,717.3,776.5,1412.4,2714.6,189.2,68.1,13
0.027000,758.2,342.9,1308.9,486.6,2780.9,543.6,780.4,1417.5,2717.8,189.3,68,13.4
0.029000,793.1,334.7,1319.3,536.8,2765.4,423.9,786.9,1425.8,2722.8,189.5,67.9,14.1
0.031000,824.5,288.2,1368.5,521.4,2752.7,347.9,795.7,1437.1,2729.7,189.7,67.8,15
0.033000,842.1,245.0,1424.0,466.8,2741.9,285.9,806.4,1451.1,2738,189.9,67.7,15.8
0.035000,856.8,214.6,1485.4,424.4,2739.7,211.8,818.8,1467.4,2747.5,190.2,67.5,16.3
0.037000,868.1,190.8,1546.2,395.5,2745.1,154.6,832.4,1485.4,2757.8,190.4,67.4,16.6
0.039000,872.6,168.0,1595.6,370.8,2751.2,123.3,846.9,1504.9,2768.6,190.7,67.4,16.7
0.041000,870.7,143.1,1638.0,344.4,2756.9,109.9,861.6,1525.1,2779.3,191,67.3,16.7
0.043000,867.8,124.4,1669.0,314.8,2761.7,111.5,876.3,1545.6,2789.7,191.3,67.3,16.6
0.045000,870.4,121.0,1681.9,286.5,2766.7,125.5,890.4,1565.8,2799.2,191.7,67.2,16.6
0.047000,881.3,138.5,1675.2,277.5,2773.1,147.7,903.6,1585.3,2807.6,192,67.2,16.5
0.049000,895.9,168.4,1659.3,282.0,2778.9,168.7,915.4,1603.5,2814.4,192.4,67.1,16.4
0.051000,910.1,195.4,1637.3,270.4,2776.0,181.1,925.6,1620.1,2819.5,192.8,67,16.3
0.053000,918.9,212.6,1616.1,243.2,2764.8,194.0,934,1634.8,2822.5,193.2,66.9,16.2
0.055000,920.5,225.5,1601.8,213.9,2755.9,222.7,940.4,1647.2,2823.3,193.6,66.8,16
0.057000,916.7,229.3,1601.8,187.7,2765.4,260.4,944.7,1657.3,2821.9,194,66.6,15.9
0.059000,912.6,225.6,1611.6,166.5,2791.3,280.8,947,1664.9,2818.3,194.5,66.5,15.8
0.061000,912.0,225.7,1621.9,153.4,2809.5,279.3,947.5,1670,2812.5,194.9,66.5,15.6
0.063000,916.2,231.9,1627.6,148.6,2808.7,270.7,946.2,1672.7,2804.8,195.4,66.4,15.5
0.065000,924.4,234.6,1633.0,148.3,2799.7,268.5,943.6,1673.2,2795.2,195.9,66.4,15.3
0.067000,933.5,225.9,1642.8,153.1,2791.0,284.3,939.8,1671.8,2784.3,196.3,66.3,15.3
0.069000,941.4,209.4,1656.2,161.9,2787.3,315.6,935.3,1668.8,2772.2,196.8,66.2,15.2
0.071000,949.7,190.0,1667.3,167.8,2791.1,338.4,930.6,1664.5,2759.5,197.3,66.1,15.2
0.073000,957.4,174.1,1666.0,162.5,2796.9,325.4,925.9,1659.3,2746.4,197.8,66,15.1
0.075000,962.3,164.9,1652.1,148.7,2800.5,293.4,921.9,1653.7,2733.4,198.2,65.8,15.1
0.077000,960.4,164.8,1633.6,133.3,2803.9,273.6,918.8,1648,2720.9,198.7,65.6,15
0.079000,952.7,173.8,1617.7,121.5,2810.6,284.5,917.1,1642.8,2709.4,199.1,65.3,15
0.081000,946.8,189.6,1608.5,114.4,2815.1,332.3,917,1638.3,2699.1,199.6,65.1,15
0.083000,950.8,210.6,1609.4,117.6,2795.4,394.8,918.9,1634.9,2690.4,200,64.9,14.9
0.085000,960.6,236.2,1618.2,132.2,2741.3,432.3,922.8,1632.9,2683.5,200.4,64.7,14.8
0.087000,967.5,257.7,1633.3,153.2,2676.9,437.8,929,1632.6,2678.6,200.7,64.5,14.6
0.089000,967.7,268.4,1653.2,174.1,2619.4,446.6,937.4,1634,2675.7,201.1,64.3,14.3
0.091000,962.4,264.8,1676.0,187.1,2566.9,467.8,947.9,1637.2,2675,201.4,64.2,14
0.093000,956.3,257.5,1694.4,189.9,2530.8,502.1,960.4,1642.2,2676.3,201.6,64,13.6
0.095000,952.3,263.7,1710.0,190.9,2521.8,571.7,974.5,1649.1,2679.6,201.8,63.8,13.2
0.097000,950.6,290.8,1724.8,189.8,2557.0,695.2,990,1657.4,2684.5,202,63.5,12.7
0.099000,947.4,327.6,1733.5,174.6,2632.5,816.4,1006.4,1667.2,2690.8,202.1,63.2,12
0.101000,941.4,374.0,1730.0,146.9,2717.0,841.1,1023.4,1678,2698.1,202.2,62.9,11.3
0.103000,944.5,442.1,1716.6,130.3,2746.1,767.5,1040.3,1689.6,2706.2,202.2,62.5,10.8
0.105000,972.6,548.8,1697.0,134.4,2736.0,693.4,1056.7,1701.5,2714.4,202.2,62.1,10.6
0.107000,1030.5,683.9,1675.5,157.6,2740.2,698.2,1072.2,1713.5,2722.4,202.1,61.6,10.9
0.109000,1103.5,805.7,1658.0,190.3,2779.1,788.3,1086.1,1725.1,2729.8,201.9,61.1,11.5
0.111000,1165.9,862.0,1651.4,226.5,2850.0,927.6,1098.2,1735.9,2736,201.7,60.6,12.2
0.113000,1187.6,841.9,1661.8,270.2,2888.6,1055.4,1107.9,1745.7,2740.7,201.4,60.1,12.9
0.115000,1179.2,764.1,1694.0,341.5,2799.2,1112.3,1115.1,1754,2743.5,201.1,59.5,13.1
0.117000,1146.2,637.8,1746.2,396.3,2662.4,964.2,1119.4,1760.7,2744.1,200.7,58.9,16.1
0.119000,1110.7,532.8,1784.3,379.0,2602.5,774.3,1120.7,1765.5,2742.1,200.3,58.3,22.2
0.121000,1082.2,450.7,1801.9,328.2,2592.0,641.4,1118.9,1768.3,2737.4,199.8,57.6,26.4
0.123000,1066.6,384.8,1807.3,289.6,2606.1,593.1,1114.2,1769.1,2729.9,199.3,56.8,23.9
0.125000,1066.8,340.1,1802.3,267.7,2645.0,618.0,1106.7,1767.8,2719.6,198.8,56,10
0.127000,1082.0,330.7,1783.2,255.1,2717.8,691.9,1096.6,1764.6,2706.3,198.2,54.9,-22.1
0.129000,1106.1,356.9,1754.0,247.6,2805.4,754.1,1084.3,1759.6,2690.4,197.7,53.8,-69.2
0.131000,1135.0,428.4,1725.9,254.2,2846.1,800.4,1070.2,1753,2671.9,197.1,52.5,-121.2
0.133000,1137.7,511.5,1713.8,249.7,2793.2,844.1,1054.8,1745.1,2651,196.5,51.2,-168.1
0.135000,1083.4,500.9,1717.7,186.8,2703.5,809.6,1038.6,1736.3,2628.2,195.8,50.1,-200
0.137000,1037.5,401.7,1723.8,118.2,2634.8,744.8,1022.1,1726.8,2603.8,195.2,49,-213.4
0.139000,1022.2,330.8,1727.3,79.4,2587.2,691.6,1006,1717.1,2578.1,194.6,48.4,-215.1
0.141000,1012.5,305.0,1728.6,62.1,2547.7,616.5,990.7,1707.4,2551.6,194.1,47.8,-210.1
0.143000,996.0,311.7,1726.7,60.4,2507.9,525.9,976.7,1698.3,2524.6,193.5,47.4,-203.4
0.145000,968.4,339.8,1719.8,72.4,2468.7,451.8,964.6,1689.9,2497.6,193.2,46.9,-200
0.147000,930.5,374.4,1703.4,99.1,2434.2,418.1,954.6,1682.7,2471,0,46.7,-200
0.149000,895.9,371.6,1679.6,121.5,2406.2,404.2,947.2,1676.8,2445.1,0,46.3,-200
0.151000,880.7,322.9,1665.8,122.3,2388.6,410.5,942.6,1672.5,2420.3,0,46.4,-200
0.153000,886.3,274.8,1669.5,117.2,2380.2,439.6,940.8,1669.8,2396.9,0,46.1,-200
0.155000,899.6,241.4,1679.8,118.5,2369.5,463.4,941.9,1668.9,2375,0,46,-200
0.157000,912.1,224.6,1685.5,129.2,2345.6,445.5,945.8,1669.8,2354.9,0,45.8,-200
0.159000,924.8,228.4,1681.1,145.4,2322.1,391.7,952.3,1672.3,2336.7,0,45.4,-200
0.161000,945.5,265.8,1669.5,162.2,2310.5,342.3,961.1,1676.3,2320.4,0,45,-200
0.163000,977.2,348.4,1661.3,171.6,2301.2,331.2,972,1681.6,2306.1,0,44.6,-200
0.165000,1018.4,486.8,1660.0,170.1,2276.9,353.6,984.3,1688.1,2293.7,0,44.2,-200
0.167000,1042.7,619.5,1661.2,159.7,2236.1,375.7,997.7,1695.3,2283.1,0,44,-200
0.169000,1038.1,620.5,1665.7,149.9,2203.1,376.0,1011.7,1703,2274.2,0,43.7,-200
0.171000,1035.3,514.5,1675.7,156.0,2191.4,397.0,1025.6,1710.8,2266.8,0,43.3,-200
0.173000,1046.6,429.3,1694.0,188.6,2195.7,489.5,1039,1718.4,2260.9,0,42.7,-200
0.175000,1068.1,387.0,1736.1,240.5,2209.0,711.8,1051.3,1725.5,2256.2,0,42.1,-200
0.177000,1083.5,361.8,1787.2,252.4,2252.2,1013.5,1062.1,1731.8,2252.7,0,41.5,-200
0.179000,1083.7,341.7,1799.6,242.6,2314.8,1127.4,1070.9,1736.9,2250,0,40.9,-200
0.181000,1077.2,315.8,1774.4,240.8,2354.6,1062.2,1077.5,1740.8,2248.3,0,40.3,-200
0.183000,1067.5,297.5,1734.6,244.9,2355.7,992.8,1081.5,1743.2,2247.2,0,39.7,-200
0.185000,1058.4,315.4,1703.2,274.4,2294.0,948.6,1082.9,1744,2246.9,0,39.4,-200
