time,f1,b1,f2,b2,f3,b3,f1p,f2p,f3p,f0,intensity,harmonicity
0.025000,788.5,114.4,1563.1,290.6,2689.5,159.5,794.4,1568.8,2715.3,205.4,76.2,17
0.027000,792.9,113.5,1571.0,261.3,2678.6,148.8,795.3,1569.3,2714.7,205.5,76.2,17.8
0.029000,796.8,110.3,1574.5,242.2,2677.5,139.8,796.9,1570.2,2713.8,205.8,76.1,18.9
0.031000,799.3,107.9,1575.7,233.1,2681.2,143.2,799.1,1571.3,2712.6,206,76.1,20.1
0.033000,801.8,106.3,1578.1,225.2,2685.9,166.4,801.8,1572.8,2711.2,206.2,76,21.1
0.035000,806.2,104.1,1583.9,213.3,2691.5,212.2,805.1,1574.6,2709.5,206.4,75.9,21.6
0.037000,812.2,101.8,1590.1,203.6,2699.7,256.6,808.8,1576.5,2707.6,206.7,75.9,21.4
0.039000,818.3,99.6,1593.9,200.0,2708.5,268.6,812.9,1578.7,2705.6,207,75.8,20.8
0.041000,822.8,97.4,1594.8,202.8,2714.9,263.6,817.4,1581,2703.6,207.2,75.8,20
0.043000,825.8,95.4,1591.9,210.2,2719.8,273.7,822.2,1583.4,2701.7,207.5,75.7,19.2
0.045000,828.6,94.6,1583.6,221.0,2722.6,315.5,827.2,1585.8,2699.8,207.8,75.6,18.9
0.047000,831.7,96.9,1573.2,232.5,2722.0,393.4,832.3,1588.2,2698.1,208.1,75.5,19
0.049000,835.3,102.1,1566.3,241.2,2722.7,497.7,837.5,1590.6,2696.6,208.4,75.4,19.4
0.051000,839.1,108.0,1564.6,242.1,2737.2,563.7,842.8,1593,2695.4,208.7,75.2,20
0.053000,843.5,112.9,1564.5,237.4,2756.2,513.0,848,1595.2,2694.6,209.1,75,20.4
0.055000,849.9,115.8,1567.7,228.9,2752.8,381.1,853,1597.3,2694.1,209.4,74.8,20.5
0.057000,857.9,114.7,1579.6,211.8,2733.8,272.5,858,1599.2,2694,209.8,74.5,20.2
0.059000,865.6,112.8,1598.1,188.5,2713.4,210.6,862.7,1601,2694.3,210.1,74.3,19.5
0.061000,871.0,115.5,1614.7,169.7,2695.9,187.1,867.1,1602.7,2695.1,210.5,74,18.7
0.063000,874.0,122.7,1624.4,159.5,2681.6,189.2,871.3,1604.2,2696.2,210.9,73.8,18
0.065000,875.1,131.4,1626.9,157.9,2670.8,213.3,875.1,1605.6,2697.7,211.2,73.6,17.5
0.067000,875.0,140.3,1624.7,165.8,2668.7,260.9,878.6,1606.8,2699.6,211.6,73.4,17.4
0.069000,875.2,150.7,1621.7,182.2,2684.5,329.6,881.8,1608,2701.9,212.1,73.2,17.5
0.071000,876.6,161.9,1620.7,203.2,2722.4,381.4,884.6,1609.2,2704.4,212.5,73.1,17.8
0.073000,878.7,173.4,1618.9,226.5,2754.9,372.4,887.1,1610.3,2707.1,212.9,72.9,18
0.075000,881.9,181.7,1613.6,242.7,2753.2,316.1,889.3,1611.6,2709.9,213.4,72.8,18.2
0.077000,887.7,179.3,1607.2,236.4,2724.7,255.0,891.2,1612.9,2712.8,213.9,72.6,18.5
0.079000,894.6,167.3,1601.6,215.3,2691.2,210.3,892.9,1614.4,2715.8,214.4,72.4,18.8
0.081000,899.9,154.4,1598.7,195.4,2669.4,190.9,894.4,1616.1,2718.7,214.9,72.2,19
0.083000,903.7,145.8,1602.9,179.1,2668.2,195.8,895.6,1618,2721.5,215.4,71.9,19.2
0.085000,906.6,139.4,1617.0,158.5,2684.1,214.2,896.8,1620.3,2724.1,216,71.7,19
0.087000,908.0,134.1,1633.6,138.3,2699.1,230.1,897.8,1622.9,2726.6,216.5,71.4,18.6
0.089000,907.9,128.8,1646.8,126.3,2703.0,238.0,898.9,1626,2728.7,217.2,71.2,17.9
0.091000,907.3,123.1,1655.3,127.3,2700.9,232.9,899.9,1629.4,2730.6,217.8,70.9,17
0.093000,907.0,118.7,1658.6,143.6,2702.2,204.5,901.1,1633.2,2732.1,218.4,70.7,16.1
0.095000,907.2,116.9,1654.2,176.6,2703.7,159.3,902.3,1637.5,2733.4,219.1,70.5,15.3
0.097000,907.0,116.9,1640.6,213.6,2700.6,125.1,903.7,1642.2,2734.3,219.8,70.3,14.5
0.099000,906.1,115.9,1623.6,234.5,2695.0,108.5,905.3,1647.4,2734.9,220.6,70.1,13.7
0.101000,905.2,113.3,1616.1,234.3,2689.8,112.7,907.2,1653,2735.3,221.3,69.8,12.9
0.103000,905.1,113.5,1624.3,235.3,2691.1,146.7,909.3,1658.9,2735.4,222.1,69.5,12.1
0.105000,905.2,117.6,1647.3,252.6,2716.5,223.3,911.8,1665.2,2735.3,222.9,69.2,11.2
0.107000,904.1,117.8,1675.7,268.5,2778.4,295.0,914.5,1671.7,2735.1,223.7,68.9,10.3
0.109000,901.5,119.7,1698.6,280.3,2840.7,301.3,917.6,1678.5,2734.9,224.5,68.6,9.2
0.111000,900.6,141.6,1711.4,304.3,2861.0,282.9,921,1685.4,2734.6,225.4,68.3,8.2
0.113000,905.7,190.8,1710.9,344.9,2845.2,277.2,924.8,1692.4,2734.4,226.2,68.1,7.4
0.115000,922.0,244.4,1700.3,399.1,2810.7,275.0,928.9,1699.4,2734.4,227.1,67.9,6.9
0.117000,941.3,256.9,1692.3,445.5,2773.2,262.4,933.3,1706.3,2734.6,228,67.8,7.1
0.119000,950.5,238.6,1689.8,471.9,2737.8,237.3,938,1713.1,2735,228.9,67.6,7.8
0.121000,950.7,214.4,1694.6,476.4,2710.7,205.1,943,1719.6,2735.8,229.7,67.4,8.7
0.123000,948.9,191.6,1713.8,462.7,2697.9,181.5,948.2,1725.8,2737,230.6,67.2,9.3
0.125000,950.3,172.6,1749.8,409.0,2703.4,187.8,953.6,1731.7,2738.6,231.5,66.9,9.4
0.127000,956.7,170.4,1775.2,301.2,2731.9,230.1,959.3,1737,2740.6,232.3,66.6,8.6
0.129000,965.9,188.3,1772.1,207.3,2769.8,278.3,965.1,1741.9,2743,233.2,66.2,7.3
0.131000,978.6,220.7,1758.0,149.9,2793.4,302.1,971,1746.2,2745.9,234,65.8,5.7
0.133000,994.2,263.3,1744.0,120.5,2790.0,285.6,976.9,1749.8,2749.2,234.8,65.3,4.3
0.135000,1007.0,305.9,1732.8,107.3,2765.8,238.7,982.9,1752.8,2752.9,235.7,64.7,3.6
0.137000,1007.6,331.2,1726.8,107.0,2738.2,194.4,988.9,1755.2,2756.9,236.5,64.1,3.6
0.139000,999.0,342.5,1727.2,120.5,2715.6,170.1,994.9,1756.8,2761.2,237.2,63.4,4
0.141000,992.0,348.5,1734.7,150.7,2702.5,168.2,1000.7,1757.8,2765.7,238,62.7,4.8
0.143000,991.5,349.1,1748.2,190.1,2702.8,181.7,1006.5,1758.1,2770.3,238.7,62,5.5
0.145000,995.0,346.8,1763.0,219.9,2718.3,205.0,1012.2,1757.8,2774.9,239.5,61.3,6
0.147000,1000.4,360.2,1770.5,224.1,2742.4,233.3,1017.6,1756.8,2779.5,240.2,60.7,9.4
0.149000,1012.5,394.2,1768.9,210.5,2765.2,255.7,1022.9,1755.2,2783.9,240.8,60.2,16.1
0.151000,1035.6,406.7,1766.0,193.7,2780.9,256.8,1028,1753.1,2788,241.5,59.6,21
0.153000,1061.0,351.1,1769.7,176.8,2792.3,238.5,1032.9,1750.4,2791.7,242.1,59,19.2
0.155000,1075.0,269.5,1774.9,156.5,2801.9,217.2,1037.5,1747.4,2795,242.7,58.3,6
0.157000,1077.4,232.4,1770.6,140.8,2806.1,206.7,1041.9,1743.9,2797.7,243.3,57.6,-25.3
0.159000,1069.5,246.2,1755.6,134.2,2800.1,203.1,1046,1740.2,2799.8,243.9,56.8,-71.4
0.161000,1043.8,275.1,1737.2,133.1,2785.7,200.4,1049.9,1736.1,2801.3,244.4,56.1,-122.5
0.163000,1012.3,249.8,1722.4,129.4,2769.7,197.1,1053.5,1731.9,2802,0,55.3,-168.7
0.165000,1001.9,186.7,1713.2,117.6,2757.0,194.1,1056.9,1727.6,2802,0,54.6,-200
0.167000,1002.8,149.1,1707.3,94.6,2752.5,200.3,1060.1,1723.2,2801.2,0,54,-213.2
0.169000,1006.3,145.7,1704.2,68.4,2761.1,228.8,1063,1718.8,2799.7,0,53.5,-214.8
0.171000,1020.2,171.6,1705.2,52.4,2793.1,270.8,1065.6,1714.5,2797.4,0,53.1,-209.9
0.173000,1052.9,202.3,1708.6,46.2,2840.8,269.0,1068.1,1710.2,2794.5,0,52.8,-203.3
0.175000,1085.7,199.0,1711.8,45.6,2868.0,219.0,1070.3,1706.1,2790.9,0,52.3,-200
0.177000,1097.0,174.1,1712.8,51.3,2869.2,179.2,1072.3,1702.1,2786.8,0,51.9,-200
0.179000,1099.9,156.5,1711.2,65.6,2861.8,167.7,1074.2,1698.4,2782.3,0,51.2,-200
0.181000,1104.3,159.9,1705.3,83.6,2854.1,189.4,1075.8,1694.9,2777.4,0,50.8,-200
0.183000,1110.3,192.7,1693.6,91.9,2845.9,256.0,1077.3,1691.6,2772.3,0,50.1,-200
0.185000,1117.3,274.8,1676.4,93.2,2829.3,399.8,1078.6,1688.6,2767.1,0,49.9,-200
0.187000,1127.1,406.0,1658.1,98.2,2794.7,602.3,1079.8,1685.9,2761.9,0,49.6,-200
0.189000,1141.7,526.8,1643.6,104.7,2771.1,738.3,1080.8,1683.5,2756.8,0,49.6,-200
0.191000,1149.5,552.6,1637.7,107.3,2800.2,736.6,1081.7,1681.3,2752,0,49.5,-200
0.193000,1130.5,505.3,1637.9,103.4,2833.5,711.7,1082.4,1679.5,2747.5,0,49.4,-200
0.195000,1093.6,431.6,1643.5,97.7,2816.4,725.1,1083.1,1677.9,2743.5,0,49.1,-200
0.197000,1057.5,361.5,1657.4,98.4,2741.1,701.7,1083.6,1676.7,2740.2,0,48.7,-200
0.199000,1028.6,303.1,1682.2,107.7,2671.0,646.6,1083.9,1675.7,2737.4,0,48,-200
0.201000,1014.2,270.0,1712.0,120.9,2626.9,629.0,1084.2,1675,2735.4,0,47.3,-200
0.203000,1022.1,281.8,1733.2,138.4,2597.2,673.1,1084.4,1674.6,2734.2,0,46.4,-200
0.205000,1064.4,356.6,1747.5,175.2,2566.8,809.8,1084.4,1674.4,2733.8,0,45.6,-200
