time,f1,b1,f2,b2,f3,b3,f1p,f2p,f3p,f0,intensity,harmonicity
0.025000,717.3,158.4,1272.8,311.2,2787.1,197.7,746.1,1262.5,2798.3,213.3,69,17.7
0.027000,727.0,164.1,1280.3,334.9,2779.7,182.0,746.7,1264.7,2795.9,213.6,68.8,18.3
0.029000,735.9,165.4,1291.4,353.5,2773.8,167.1,747.7,1268.2,2792.1,213.8,68.7,19
0.031000,744.1,164.0,1303.0,363.9,2773.2,160.9,749.2,1273.1,2787.2,214.2,68.6,19.6
0.033000,751.8,162.6,1309.4,373.4,2776.7,164.2,751,1279.3,2781.3,214.5,68.6,20
0.035000,759.2,163.5,1306.7,395.2,2781.1,170.8,753.3,1286.7,2774.8,214.8,68.5,20.1
0.037000,766.7,167.2,1294.7,433.5,2783.5,169.4,756,1295.2,2768.2,215.2,68.4,19.5
0.039000,773.8,171.2,1281.7,473.1,2782.1,155.5,759,1304.8,2761.7,215.6,68.3,18.3
0.041000,779.1,171.7,1282.8,490.7,2776.7,139.3,762.5,1315.3,2755.7,216,68.2,17
0.043000,781.8,168.5,1300.2,484.1,2767.2,131.9,766.3,1326.7,2750.7,216.4,68.1,15.9
0.045000,782.7,164.9,1321.2,473.0,2754.7,137.0,770.4,1338.8,2746.9,216.9,68,15.6
0.047000,782.8,164.0,1333.8,476.8,2743.2,153.7,774.8,1351.6,2744.5,217.3,67.9,16.2
0.049000,783.1,166.9,1333.5,503.3,2737.8,180.4,779.5,1365.1,2743.7,217.8,67.9,17.5
0.051000,786.1,170.5,1328.4,540.4,2741.4,208.7,784.4,1379.2,2744.6,218.3,67.7,19.1
0.053000,793.2,169.2,1337.1,563.8,2752.2,225.5,789.5,1393.8,2747.1,218.8,67.6,20.5
0.055000,802.2,162.2,1365.9,564.4,2764.2,230.6,794.6,1409,2751.1,219.4,67.5,21.2
0.057000,810.1,153.7,1404.1,565.1,2771.8,239.6,799.8,1424.6,2756.6,219.9,67.4,21
0.059000,815.2,147.1,1444.5,595.0,2774.1,269.6,804.8,1440.6,2763.1,220.5,67.3,20.2
0.061000,816.9,141.8,1486.1,647.5,2771.9,322.8,809.7,1457,2770.4,221,67.2,19.2
0.063000,814.7,135.0,1524.8,663.3,2767.6,367.0,814.3,1473.8,2778.3,221.6,67.1,18.2
0.065000,809.6,124.7,1552.9,585.7,2767.8,354.4,818.5,1490.9,2786.3,222.2,67,17.7
0.067000,804.9,112.5,1569.3,462.6,2773.0,305.3,822.3,1508.1,2794.1,222.8,66.9,17.8
0.069000,802.7,103.6,1578.6,369.8,2779.8,273.4,825.4,1525.4,2801.4,223.5,66.9,18.2
0.071000,803.0,101.5,1584.3,327.3,2787.8,278.5,827.9,1542.6,2808,224.1,66.8,18.8
0.073000,804.9,106.6,1587.9,323.9,2797.0,319.9,829.5,1559.6,2813.7,224.8,66.7,19.4
0.075000,807.5,116.7,1590.7,339.9,2804.7,386.9,830.2,1576.2,2818.3,225.5,66.5,19.5
0.077000,810.7,128.3,1595.2,359.0,2806.6,465.0,830.1,1592.2,2821.9,226.2,66.3,19.3
0.079000,815.1,138.5,1604.5,378.2,2807.8,544.5,828.9,1607.4,2824.5,226.9,66,18.8
0.081000,820.4,143.7,1618.0,401.3,2824.5,606.6,826.6,1621.5,2826.2,227.7,65.7,18.2
0.083000,824.8,142.9,1628.0,432.5,2859.1,604.3,823.4,1634.4,2827.2,228.5,65.4,17.7
0.085000,827.1,141.4,1623.2,479.2,2879.0,519.1,819.2,1645.9,2827.9,229.2,65.2,17.3
0.087000,827.6,145.7,1602.8,530.0,2869.7,414.1,814.1,1655.7,2828.5,230,64.9,17.1
0.089000,828.5,156.6,1589.1,551.5,2856.7,350.9,808.1,1663.7,2829.3,230.9,64.7,17
0.091000,830.5,167.8,1594.3,537.6,2849.2,344.0,801.4,1669.9,2830.7,231.7,64.5,17
0.093000,832.4,173.7,1610.4,513.3,2842.1,377.9,794.2,1674.1,2833,232.5,64.3,17.1
0.095000,831.5,175.4,1631.4,491.0,2833.1,417.7,786.7,1676.3,2836.5,233.4,64.2,17.1
0.097000,825.4,179.2,1655.5,467.4,2833.2,412.0,779.1,1676.7,2841.2,234.2,64.1,17.2
0.099000,813.1,196.0,1680.8,447.8,2845.4,371.7,771.5,1675.3,2847.5,235,64,17.4
0.101000,795.2,231.4,1700.7,433.2,2848.9,347.1,764.4,1672.3,2855.2,235.9,63.9,17.5
0.103000,772.3,277.0,1711.5,418.6,2837.4,352.0,757.9,1667.9,2864.4,236.7,63.8,17.5
0.105000,743.2,325.6,1714.9,396.9,2824.4,379.4,752.3,1662.6,2874.8,237.5,63.7,17.1
0.107000,701.9,376.1,1711.0,345.7,2828.8,411.7,747.9,1656.5,2886.1,238.3,63.7,16.1
0.109000,648.7,421.4,1700.7,268.5,2858.4,428.8,744.9,1650,2898.1,239.1,63.7,14.7
0.111000,615.7,453.5,1688.3,208.3,2905.1,426.9,743.5,1643.6,2910.2,239.8,63.7,13
0.113000,651.0,461.7,1675.5,187.1,2953.8,423.5,743.9,1637.7,2922.1,240.5,63.7,11.7
0.115000,719.5,426.5,1662.6,195.2,2995.8,448.6,746.3,1632.5,2933.2,241.2,63.7,10.9
0.117000,769.5,396.8,1649.5,212.7,3025.4,526.5,750.8,1628.5,2943.1,241.8,63.6,11
0.119000,796.4,405.5,1633.3,215.7,3028.0,673.5,757.4,1625.9,2951.2,242.3,63.5,11.7
0.121000,806.7,450.5,1615.3,188.6,2971.3,847.9,766,1625.1,2957.2,242.8,63.3,12.7
0.123000,809.6,526.6,1604.4,155.6,2879.1,974.1,776.7,1626.1,2960.7,243.3,63,13.5
0.125000,815.9,644.8,1601.2,145.5,2824.7,1114.9,789.2,1629,2961.6,243.7,62.7,14.1
0.127000,838.7,758.1,1601.3,158.7,2848.3,1261.3,803.4,1634,2959.6,244,62.3,14.2
0.129000,877.0,762.4,1602.3,184.9,2924.2,1266.8,819.1,1640.8,2954.9,244.3,61.8,14
0.131000,900.2,709.2,1603.1,219.0,2998.3,1138.0,835.8,1649.4,2947.5,244.5,61.3,13.8
0.133000,896.3,698.3,1603.5,257.4,3038.4,954.2,853.4,1659.5,2937.7,244.6,60.8,13.5
0.135000,866.0,777.5,1606.8,300.9,3040.7,819.3,871.3,1670.7,2925.9,244.7,60.2,13.3
0.137000,816.3,950.2,1622.1,363.9,3014.0,817.6,889.2,1682.8,2912.5,244.7,59.6,13.3
0.139000,818.7,1045.6,1672.2,474.0,2962.7,963.6,906.7,1695.2,2898.2,244.7,59,13.5
0.141000,914.4,789.0,1781.1,569.2,2901.3,1153.9,923.3,1707.6,2883.5,244.7,58.3,13.7
0.143000,958.3,530.1,1826.0,519.1,2799.4,1101.1,938.7,1719.5,2869.1,244.6,57.6,13.5
0.145000,969.9,417.3,1783.5,427.5,2711.6,875.7,952.5,1730.5,2855.6,244.4,56.7,12.9
0.147000,971.7,378.6,1744.0,343.4,2684.3,736.2,964.2,1740.1,2843.6,244.3,55.9,14.8
0.149000,972.8,382.0,1729.2,291.3,2703.1,704.6,973.7,1748,2833.7,244.1,54.9,19.4
0.151000,975.7,417.0,1735.5,257.3,2772.9,762.0,980.7,1753.8,2826.3,243.9,53.7,22.1
0.153000,978.6,472.3,1757.0,207.4,2907.1,862.3,984.9,1757.4,2821.7,243.7,52.4,18.6
0.155000,977.5,559.7,1775.8,139.5,3052.0,890.7,986.3,1758.6,2820.1,243.4,50.9,4.2
